UA-Ange: 0, ForearmStretched: 221, Forearm: 91, LeftArm? Yes
Time, EMG-Signal, Force-Value, Elbow-Angle, Transformed-Angle, MotorTarget
493.993, 17, 419, 116, -72.69231, 0
493.993, 17, 419, 116, -72.69231, 0
494.013, 16, 419, 116, -72.69231, 0
494.0341, 17, 419, 116, -72.69231, 0
494.0517, 17, 418, 116, -72.69231, 0
494.0687, 16, 419, 116, -72.69231, 0
494.0858, 17, 419, 116, -72.69231, 0
494.0992, 17, 419, 117, -72, 0
494.1151, 17, 419, 116, -72.69231, 0
494.1349, 17, 419, 116, -72.69231, 0
494.1525, 17, 419, 116, -72.69231, 0
494.1683, 16, 419, 116, -72.69231, 0
494.1847, 16, 419, 116, -72.69231, 0
494.204, 17, 418, 117, -72, 0
494.2234, 17, 419, 116, -72.69231, 0
494.2444, 17, 419, 116, -72.69231, 0
494.2533, 17, 419, 116, -72.69231, 0
494.2833, 17, 419, 116, -72.69231, 0
494.2897, 17, 419, 116, -72.69231, 0
494.3079, 17, 419, 117, -72, 0
494.3186, 17, 419, 116, -72.69231, 0
494.3372, 17, 419, 116, -72.69231, 0
494.3531, 16, 419, 116, -72.69231, 0
494.3718, 16, 419, 116, -72.69231, 0
494.3901, 17, 419, 116, -72.69231, 0
494.4074, 16, 419, 116, -72.69231, 0
494.4215, 16, 419, 116, -72.69231, 0
494.4403, 16, 419, 116, -72.69231, 0
494.4579, 16, 419, 116, -72.69231, 0
494.4725, 17, 419, 116, -72.69231, 0
494.492, 17, 419, 116, -72.69231, 0
494.5127, 17, 420, 117, -72, 0
494.5319, 17, 420, 116, -72.69231, 0
494.5533, 17, 419, 116, -72.69231, 0
494.5684, 17, 419, 116, -72.69231, 0
494.5878, 17, 419, 116, -72.69231, 0
494.6091, 17, 419, 116, -72.69231, 0
494.63, 17, 419, 116, -72.69231, 0
494.6486, 17, 419, 116, -72.69231, 0
494.6691, 16, 419, 116, -72.69231, 0
494.685, 16, 419, 116, -72.69231, 0
494.7065, 17, 419, 116, -72.69231, 0
494.7289, 16, 419, 116, -72.69231, 0
494.7464, 16, 419, 117, -72, 0
494.7674, 16, 418, 116, -72.69231, 0
494.7998, 16, 418, 117, -72, 0
494.8045, 16, 419, 116, -72.69231, 0
494.8294, 16, 419, 116, -72.69231, 0
494.8478, 17, 419, 116, -72.69231, 0
494.8655, 17, 418, 117, -72, 0
494.8857, 17, 418, 117, -72, 0
494.9021, 16, 419, 117, -72, 0
494.9225, 16, 419, 116, -72.69231, 0
494.944, 17, 419, 116, -72.69231, 0
494.9648, 17, 419, 116, -72.69231, 0
494.9855, 17, 418, 117, -72, 0
495.0049, 17, 418, 116, -72.69231, 0
495.0229, 16, 419, 116, -72.69231, 0
495.0431, 16, 418, 116, -72.69231, 0
495.064, 16, 419, 116, -72.69231, 0
495.0855, 17, 418, 116, -72.69231, 0
495.1084, 17, 418, 117, -72, 0
495.1252, 16, 418, 117, -72, 0
495.142, 17, 419, 116, -72.69231, 0
495.1666, 16, 419, 116, -72.69231, 0
495.1837, 16, 418, 116, -72.69231, 0
495.2043, 17, 419, 117, -72, 0
495.2236, 16, 418, 116, -72.69231, 0
495.2426, 17, 418, 116, -72.69231, 0
495.2639, 17, 418, 116, -72.69231, 0
495.2812, 17, 418, 116, -72.69231, 0
495.3013, 17, 419, 116, -72.69231, 0
495.3212, 17, 419, 116, -72.69231, 0
495.3392, 17, 418, 117, -72, 0
495.3625, 17, 418, 117, -72, 0
495.3792, 17, 418, 117, -72, 0
495.3998, 16, 419, 116, -72.69231, 0
495.4192, 16, 419, 117, -72, 0
495.4406, 17, 419, 116, -72.69231, 0
495.4617, 17, 419, 117, -72, 0
495.4811, 17, 418, 116, -72.69231, 0
495.4981, 17, 419, 116, -72.69231, 0
495.5179, 17, 419, 116, -72.69231, 0
495.5383, 17, 419, 116, -72.69231, 0
495.5596, 17, 419, 116, -72.69231, 0
495.5803, 17, 419, 116, -72.69231, 0
495.5954, 17, 419, 116, -72.69231, 0
495.6147, 16, 419, 117, -72, 0
495.6369, 17, 419, 116, -72.69231, 0
495.6577, 17, 419, 116, -72.69231, 0
495.6794, 17, 419, 116, -72.69231, 0
495.6987, 16, 418, 116, -72.69231, 0
495.715, 17, 419, 116, -72.69231, 0
495.735, 16, 419, 116, -72.69231, 0
495.7556, 16, 419, 116, -72.69231, 0
495.7758, 16, 419, 116, -72.69231, 0
495.7957, 16, 419, 116, -72.69231, 0
495.8166, 17, 418, 116, -72.69231, 0
495.8326, 17, 419, 116, -72.69231, 0
495.8534, 17, 419, 116, -72.69231, 0
495.8748, 17, 419, 116, -72.69231, 0
495.8952, 16, 419, 116, -72.69231, 0
495.9153, 17, 419, 116, -72.69231, 0
495.935, 17, 419, 116, -72.69231, 0
495.9516, 17, 419, 116, -72.69231, 0
495.9721, 17, 420, 116, -72.69231, 0
495.9927, 16, 419, 116, -72.69231, 0
496.0173, 16, 419, 116, -72.69231, 0
496.0346, 17, 419, 116, -72.69231, 0
496.0537, 17, 419, 116, -72.69231, 0
496.0692, 17, 419, 116, -72.69231, 0
496.0941, 16, 419, 116, -72.69231, 0
496.1143, 17, 419, 116, -72.69231, 0
496.1324, 16, 419, 116, -72.69231, 0
496.1534, 17, 419, 116, -72.69231, 0
496.175, 16, 419, 116, -72.69231, 0
496.1882, 17, 419, 116, -72.69231, 0
496.209, 17, 419, 116, -72.69231, 0
496.2296, 16, 419, 116, -72.69231, 0
496.2503, 17, 419, 116, -72.69231, 0
496.2704, 16, 419, 116, -72.69231, 0
496.2863, 16, 419, 116, -72.69231, 0
496.3068, 17, 418, 116, -72.69231, 0
496.3283, 17, 419, 116, -72.69231, 0
496.3486, 17, 419, 116, -72.69231, 0
496.3687, 17, 419, 116, -72.69231, 0
496.3891, 16, 419, 116, -72.69231, 0
496.4073, 17, 419, 116, -72.69231, 0
496.4276, 17, 419, 116, -72.69231, 0
496.4468, 17, 419, 116, -72.69231, 0
496.4674, 17, 419, 116, -72.69231, 0
496.4877, 16, 419, 116, -72.69231, 0
496.5085, 17, 418, 116, -72.69231, 0
496.5279, 17, 419, 116, -72.69231, 0
496.547, 17, 419, 116, -72.69231, 0
496.5669, 17, 419, 116, -72.69231, 0
496.5864, 17, 419, 116, -72.69231, 0
496.6092, 17, 419, 116, -72.69231, 0
496.6305, 17, 418, 116, -72.69231, 0
496.6449, 17, 419, 116, -72.69231, 0
496.6637, 16, 419, 116, -72.69231, 0
496.6848, 16, 419, 116, -72.69231, 0
496.7052, 16, 419, 116, -72.69231, 0
496.7257, 17, 419, 116, -72.69231, 0
496.7457, 17, 419, 116, -72.69231, 0
496.7622, 16, 419, 116, -72.69231, 0
496.7829, 17, 419, 116, -72.69231, 0
496.8032, 17, 419, 116, -72.69231, 0
496.8237, 17, 419, 116, -72.69231, 0
496.8445, 17, 418, 116, -72.69231, 0
496.864, 17, 418, 116, -72.69231, 0
496.8806, 17, 419, 116, -72.69231, 0
496.9001, 17, 419, 116, -72.69231, 0
496.9212, 16, 419, 116, -72.69231, 0
496.9419, 16, 419, 116, -72.69231, 0
496.9621, 16, 419, 116, -72.69231, 0
496.9837, 16, 419, 116, -72.69231, 0
496.9989, 16, 419, 116, -72.69231, 0
497.0189, 17, 419, 116, -72.69231, 0
497.0402, 16, 419, 116, -72.69231, 0
497.061, 16, 419, 116, -72.69231, 0
497.0805, 17, 420, 116, -72.69231, 0
497.0972, 17, 419, 116, -72.69231, 0
497.1174, 16, 419, 116, -72.69231, 0
497.1395, 17, 419, 116, -72.69231, 0
497.1619, 17, 419, 116, -72.69231, 0
497.1795, 17, 419, 116, -72.69231, 0
497.1997, 16, 419, 116, -72.69231, 0
497.2164, 16, 419, 116, -72.69231, 0
497.2364, 16, 419, 116, -72.69231, 0
497.2575, 17, 419, 116, -72.69231, 0
497.2785, 17, 419, 116, -72.69231, 0
497.2993, 16, 419, 116, -72.69231, 0
497.3191, 16, 419, 116, -72.69231, 0
497.3358, 17, 419, 116, -72.69231, 0
497.3562, 16, 419, 116, -72.69231, 0
497.3776, 17, 419, 116, -72.69231, 0
497.3972, 16, 418, 116, -72.69231, 0
497.4174, 17, 419, 116, -72.69231, 0
497.447, 17, 419, 116, -72.69231, 0
497.4547, 17, 419, 116, -72.69231, 0
497.4732, 17, 419, 116, -72.69231, 0
497.4945, 17, 419, 116, -72.69231, 0
497.5153, 17, 419, 116, -72.69231, 0
497.5357, 17, 419, 116, -72.69231, 0
497.5559, 17, 419, 116, -72.69231, 0
497.5731, 17, 419, 116, -72.69231, 0
497.5945, 16, 419, 116, -72.69231, 0
497.6181, 17, 419, 116, -72.69231, 0
497.6347, 17, 419, 116, -72.69231, 0
497.6539, 17, 420, 116, -72.69231, 0
497.6753, 16, 419, 116, -72.69231, 0
497.6916, 16, 419, 116, -72.69231, 0
497.7126, 17, 419, 116, -72.69231, 0
497.7342, 17, 419, 116, -72.69231, 0
497.7546, 17, 419, 116, -72.69231, 0
497.7742, 17, 419, 116, -72.69231, 0
497.7892, 16, 419, 116, -72.69231, 0
497.8106, 16, 419, 116, -72.69231, 0
497.8308, 16, 419, 116, -72.69231, 0
497.8509, 16, 419, 116, -72.69231, 0
497.8712, 17, 419, 116, -72.69231, 0
497.8918, 17, 419, 116, -72.69231, 0
497.9081, 16, 419, 116, -72.69231, 0
497.9297, 16, 419, 116, -72.69231, 0
497.9519, 16, 419, 116, -72.69231, 0
497.9713, 17, 419, 116, -72.69231, 0
497.9929, 16, 419, 116, -72.69231, 0
498.0136, 16, 419, 116, -72.69231, 0
498.0314, 17, 420, 116, -72.69231, 0
498.051, 16, 419, 116, -72.69231, 0
498.0692, 16, 420, 116, -72.69231, 0
498.0902, 16, 419, 116, -72.69231, 0
498.1104, 17, 419, 116, -72.69231, 0
498.1302, 17, 419, 116, -72.69231, 0
498.1472, 16, 419, 116, -72.69231, 0
498.1663, 17, 419, 116, -72.69231, 0
498.1871, 17, 420, 116, -72.69231, 0
498.2082, 17, 419, 116, -72.69231, 0
498.2284, 16, 419, 116, -72.69231, 0
498.2486, 17, 419, 116, -72.69231, 0
498.2668, 17, 419, 116, -72.69231, 0
498.2859, 16, 419, 116, -72.69231, 0
498.3069, 16, 419, 116, -72.69231, 0
498.3282, 16, 419, 116, -72.69231, 0
498.3483, 17, 418, 116, -72.69231, 0
498.3713, 17, 419, 116, -72.69231, 0
498.3855, 16, 419, 116, -72.69231, 0
498.4069, 17, 420, 116, -72.69231, 0
498.426, 17, 419, 116, -72.69231, 0
498.4466, 16, 419, 116, -72.69231, 0
498.466, 17, 420, 116, -72.69231, 0
498.4826, 17, 419, 116, -72.69231, 0
498.5036, 17, 419, 116, -72.69231, 0
498.5229, 17, 419, 116, -72.69231, 0
498.5437, 17, 419, 116, -72.69231, 0
498.5668, 16, 419, 116, -72.69231, 0
498.5848, 17, 419, 116, -72.69231, 0
498.6015, 17, 420, 116, -72.69231, 0
498.6209, 17, 419, 116, -72.69231, 0
498.6429, 17, 420, 116, -72.69231, 0
498.6618, 16, 420, 116, -72.69231, 0
498.6823, 17, 419, 116, -72.69231, 0
498.7042, 16, 419, 116, -72.69231, 0
498.72, 17, 419, 116, -72.69231, 0
498.7404, 17, 419, 116, -72.69231, 0
498.7605, 17, 420, 116, -72.69231, 0
498.7867, 16, 419, 116, -72.69231, 0
498.8015, 16, 419, 116, -72.69231, 0
498.8214, 17, 419, 116, -72.69231, 0
498.8376, 17, 419, 116, -72.69231, 0
498.8587, 17, 419, 116, -72.69231, 0
498.8797, 17, 419, 116, -72.69231, 0
498.8993, 16, 419, 116, -72.69231, 0
498.9202, 16, 419, 116, -72.69231, 0
498.9412, 16, 419, 116, -72.69231, 0
498.9566, 16, 419, 116, -72.69231, 0
498.9773, 17, 419, 116, -72.69231, 0
498.9975, 16, 419, 116, -72.69231, 0
499.0181, 17, 419, 116, -72.69231, 0
499.0385, 16, 419, 116, -72.69231, 0
499.0594, 16, 419, 116, -72.69231, 0
499.0764, 17, 419, 116, -72.69231, 0
499.0956, 16, 420, 116, -72.69231, 0
499.1161, 16, 420, 116, -72.69231, 0
499.1365, 17, 420, 116, -72.69231, 0
499.1571, 16, 419, 116, -72.69231, 0
499.1756, 17, 419, 116, -72.69231, 0
499.194, 17, 420, 116, -72.69231, 0
499.2146, 17, 420, 116, -72.69231, 0
499.235, 17, 420, 116, -72.69231, 0
499.2549, 17, 420, 116, -72.69231, 0
499.2767, 17, 419, 116, -72.69231, 0
499.2935, 17, 419, 116, -72.69231, 0
499.3132, 16, 420, 116, -72.69231, 0
499.3333, 17, 420, 116, -72.69231, 0
499.3536, 16, 419, 116, -72.69231, 0
499.3743, 16, 419, 116, -72.69231, 0
499.3945, 16, 419, 116, -72.69231, 0
499.411, 16, 419, 116, -72.69231, 0
499.4316, 17, 419, 116, -72.69231, 0
499.4552, 16, 420, 116, -72.69231, 0
499.4717, 17, 420, 116, -72.69231, 0
499.4942, 17, 420, 116, -72.69231, 0
499.5139, 17, 420, 116, -72.69231, 0
499.5299, 17, 420, 116, -72.69231, 0
499.5497, 17, 420, 116, -72.69231, 0
499.5709, 17, 420, 116, -72.69231, 0
499.5922, 16, 419, 116, -72.69231, 0
499.6114, 17, 420, 116, -72.69231, 0
499.6321, 16, 420, 116, -72.69231, 0
499.6482, 16, 420, 116, -72.69231, 0
499.6688, 16, 420, 116, -72.69231, 0
499.6888, 17, 420, 116, -72.69231, 0
499.7103, 17, 419, 116, -72.69231, 0
499.7305, 17, 420, 116, -72.69231, 0
499.7506, 17, 420, 116, -72.69231, 0
499.7671, 17, 419, 116, -72.69231, 0
499.7877, 17, 419, 116, -72.69231, 0
499.809, 17, 419, 116, -72.69231, 0
499.8283, 17, 419, 116, -72.69231, 0
499.849, 17, 419, 116, -72.69231, 0
499.8653, 17, 419, 116, -72.69231, 0
499.886, 16, 419, 116, -72.69231, 0
499.9065, 17, 420, 116, -72.69231, 0
499.9275, 17, 420, 116, -72.69231, 0
499.948, 17, 420, 116, -72.69231, 0
499.9687, 17, 419, 116, -72.69231, 0
499.9842, 17, 419, 116, -72.69231, 0
500.0047, 16, 419, 116, -72.69231, 0
500.0259, 17, 419, 116, -72.69231, 0
500.0457, 17, 419, 116, -72.69231, 0
500.0659, 16, 418, 116, -72.69231, 0
500.0865, 17, 419, 116, -72.69231, 0
500.1028, 17, 419, 116, -72.69231, 0
500.1232, 16, 419, 116, -72.69231, 0
500.1441, 16, 418, 116, -72.69231, 0
500.1646, 17, 419, 116, -72.69231, 0
500.1865, 17, 419, 116, -72.69231, 0
500.2049, 17, 419, 116, -72.69231, 0
500.2215, 17, 419, 116, -72.69231, 0
500.2443, 16, 419, 116, -72.69231, 0
500.2633, 17, 419, 116, -72.69231, 0
500.2838, 16, 419, 116, -72.69231, 0
500.3033, 17, 419, 116, -72.69231, 0
500.3242, 17, 419, 116, -72.69231, 0
500.3412, 16, 419, 116, -72.69231, 0
500.361, 17, 419, 116, -72.69231, 0
500.3814, 16, 419, 116, -72.69231, 0
500.4018, 17, 419, 116, -72.69231, 0
500.4227, 17, 419, 116, -72.69231, 0
500.4435, 17, 419, 116, -72.69231, 0
500.4607, 16, 419, 116, -72.69231, 0
500.4799, 17, 419, 116, -72.69231, 0
500.4999, 16, 419, 116, -72.69231, 0
500.5206, 17, 418, 116, -72.69231, 0
500.5424, 16, 419, 116, -72.69231, 0
500.5609, 17, 419, 116, -72.69231, 0
500.5781, 17, 419, 116, -72.69231, 0
500.5981, 16, 418, 116, -72.69231, 0
500.6189, 16, 418, 116, -72.69231, 0
500.6392, 16, 417, 116, -72.69231, 0
500.6605, 17, 418, 116, -72.69231, 0
500.677, 17, 418, 116, -72.69231, 0
500.6966, 16, 418, 116, -72.69231, 0
500.7171, 16, 418, 116, -72.69231, 0
500.7374, 17, 417, 116, -72.69231, 0
500.7589, 17, 418, 116, -72.69231, 0
500.7785, 17, 418, 116, -72.69231, 0
500.7949, 17, 418, 116, -72.69231, 0
500.8151, 17, 418, 116, -72.69231, 0
500.8359, 16, 418, 116, -72.69231, 0
500.8577, 16, 418, 116, -72.69231, 0
500.8772, 16, 418, 116, -72.69231, 0
500.8972, 16, 418, 116, -72.69231, 0
500.9138, 17, 418, 116, -72.69231, 0
500.9341, 17, 418, 116, -72.69231, 0
500.9544, 16, 418, 116, -72.69231, 0
500.9763, 16, 418, 116, -72.69231, 0
500.9957, 16, 418, 116, -72.69231, 0
501.016, 17, 418, 116, -72.69231, 0
501.0326, 16, 417, 116, -72.69231, 0
501.0531, 17, 418, 116, -72.69231, 0
501.0749, 17, 418, 116, -72.69231, 0
501.0941, 16, 418, 116, -72.69231, 0
501.1143, 17, 418, 116, -72.69231, 0
501.1349, 16, 418, 116, -72.69231, 0
501.1511, 16, 419, 116, -72.69231, 0
501.1717, 17, 419, 116, -72.69231, 0
501.1932, 17, 419, 116, -72.69231, 0
501.213, 17, 419, 116, -72.69231, 0
501.2339, 16, 418, 116, -72.69231, 0
501.2513, 16, 418, 116, -72.69231, 0
501.2711, 17, 418, 116, -72.69231, 0
501.291, 17, 418, 116, -72.69231, 0
501.3109, 17, 417, 116, -72.69231, 0
501.3317, 17, 417, 116, -72.69231, 0
501.3519, 17, 418, 116, -72.69231, 0
501.3683, 16, 418, 116, -72.69231, 0
501.3887, 16, 418, 116, -72.69231, 0
501.4105, 16, 418, 116, -72.69231, 0
501.4298, 16, 418, 116, -72.69231, 0
501.4503, 17, 418, 116, -72.69231, 0
501.4707, 16, 418, 116, -72.69231, 0
501.4871, 16, 419, 116, -72.69231, 0
501.5087, 17, 418, 116, -72.69231, 0
501.5283, 17, 418, 116, -72.69231, 0
501.5488, 17, 418, 116, -72.69231, 0
501.569, 17, 419, 116, -72.69231, 0
501.5896, 16, 418, 116, -72.69231, 0
501.6071, 17, 418, 116, -72.69231, 0
501.6271, 16, 419, 116, -72.69231, 0
501.6468, 16, 419, 116, -72.69231, 0
501.6672, 17, 419, 116, -72.69231, 0
501.6876, 17, 418, 116, -72.69231, 0
501.7091, 17, 418, 116, -72.69231, 0
501.7257, 17, 419, 116, -72.69231, 0
501.7451, 17, 419, 116, -72.69231, 0
501.7658, 17, 419, 116, -72.69231, 0
501.7859, 17, 418, 116, -72.69231, 0
501.8067, 16, 419, 116, -72.69231, 0
501.8272, 16, 418, 116, -72.69231, 0
501.8439, 16, 419, 116, -72.69231, 0
501.8641, 17, 419, 116, -72.69231, 0
501.8868, 16, 418, 116, -72.69231, 0
501.9073, 17, 419, 116, -72.69231, 0
501.9286, 17, 418, 116, -72.69231, 0
501.9448, 17, 418, 116, -72.69231, 0
501.9644, 17, 418, 116, -72.69231, 0
501.9859, 17, 418, 116, -72.69231, 0
502.0051, 16, 418, 116, -72.69231, 0
502.0258, 16, 418, 116, -72.69231, 0
502.0469, 17, 418, 116, -72.69231, 0
502.0645, 17, 418, 116, -72.69231, 0
502.0845, 17, 418, 116, -72.69231, 0
502.1045, 16, 418, 116, -72.69231, 0
502.1257, 17, 418, 116, -72.69231, 0
502.1454, 17, 417, 116, -72.69231, 0
502.1651, 17, 418, 116, -72.69231, 0
502.1822, 17, 417, 116, -72.69231, 0
502.2023, 17, 417, 116, -72.69231, 0
502.2245, 16, 418, 116, -72.69231, 0
502.2417, 16, 418, 116, -72.69231, 0
502.262, 17, 418, 116, -72.69231, 0
502.2834, 16, 418, 116, -72.69231, 0
502.2998, 16, 418, 116, -72.69231, 0
502.3184, 16, 419, 116, -72.69231, 0
502.3391, 17, 419, 116, -72.69231, 0
502.3604, 16, 418, 116, -72.69231, 0
502.3799, 16, 418, 116, -72.69231, 0
502.4005, 16, 418, 116, -72.69231, 0
502.4167, 17, 418, 116, -72.69231, 0
502.4373, 16, 418, 116, -72.69231, 0
502.4582, 16, 418, 116, -72.69231, 0
502.4782, 16, 418, 116, -72.69231, 0
502.4987, 16, 418, 116, -72.69231, 0
502.5192, 16, 418, 116, -72.69231, 0
502.5357, 16, 418, 116, -72.69231, 0
502.556, 17, 418, 116, -72.69231, 0
502.5772, 17, 418, 116, -72.69231, 0
502.5969, 16, 418, 116, -72.69231, 0
502.6175, 16, 418, 116, -72.69231, 0
502.6339, 16, 418, 116, -72.69231, 0
502.6545, 17, 418, 116, -72.69231, 0
502.6759, 16, 417, 116, -72.69231, 0
502.6952, 17, 417, 116, -72.69231, 0
502.7158, 17, 417, 116, -72.69231, 0
502.7362, 17, 417, 116, -72.69231, 0
502.7532, 16, 417, 116, -72.69231, 0
502.7739, 17, 417, 116, -72.69231, 0
502.7939, 17, 418, 116, -72.69231, 0
502.8142, 17, 417, 116, -72.69231, 0
502.8347, 17, 417, 116, -72.69231, 0
502.8547, 16, 417, 116, -72.69231, 0
502.8715, 17, 418, 116, -72.69231, 0
502.8932, 17, 417, 116, -72.69231, 0
502.9127, 17, 417, 116, -72.69231, 0
502.9333, 17, 417, 116, -72.69231, 0
502.9531, 17, 417, 116, -72.69231, 0
502.9739, 17, 417, 116, -72.69231, 0
502.9937, 17, 418, 116, -72.69231, 0
503.0143, 17, 417, 116, -72.69231, 0
503.0357, 17, 417, 116, -72.69231, 0
503.0541, 16, 417, 116, -72.69231, 0
503.0744, 17, 418, 116, -72.69231, 0
503.0944, 17, 418, 116, -72.69231, 0
503.1106, 16, 417, 116, -72.69231, 0
503.1305, 16, 418, 116, -72.69231, 0
503.152, 17, 418, 116, -72.69231, 0
503.1728, 16, 418, 116, -72.69231, 0
503.195, 16, 418, 116, -72.69231, 0
503.2134, 16, 418, 116, -72.69231, 0
503.2306, 16, 418, 116, -72.69231, 0
503.2496, 17, 418, 116, -72.69231, 0
503.2705, 17, 419, 116, -72.69231, 0
503.2892, 17, 418, 116, -72.69231, 0
503.3107, 17, 418, 116, -72.69231, 0
503.3284, 16, 419, 116, -72.69231, 0
503.3463, 17, 418, 116, -72.69231, 0
503.3687, 16, 418, 116, -72.69231, 0
503.389, 16, 419, 116, -72.69231, 0
503.4095, 16, 417, 116, -72.69231, 0
503.4304, 16, 418, 116, -72.69231, 0
503.4466, 17, 418, 116, -72.69231, 0
503.4669, 17, 418, 116, -72.69231, 0
503.4873, 17, 418, 116, -72.69231, 0
503.5083, 17, 417, 116, -72.69231, 0
503.5291, 16, 417, 116, -72.69231, 0
503.5509, 17, 417, 116, -72.69231, 0
503.5653, 16, 418, 116, -72.69231, 0
503.5843, 16, 417, 116, -72.69231, 0
503.605, 17, 417, 116, -72.69231, 0
503.6271, 16, 417, 116, -72.69231, 0
503.6455, 17, 417, 116, -72.69231, 0
503.6658, 17, 417, 116, -72.69231, 0
503.6829, 17, 417, 116, -72.69231, 0
503.7035, 17, 418, 116, -72.69231, 0
503.7236, 17, 418, 116, -72.69231, 0
503.7444, 17, 418, 116, -72.69231, 0
503.7646, 17, 417, 116, -72.69231, 0
503.7848, 17, 417, 116, -72.69231, 0
503.8023, 16, 418, 116, -72.69231, 0
503.8218, 16, 418, 116, -72.69231, 0
503.8437, 16, 418, 116, -72.69231, 0
503.866, 16, 418, 116, -72.69231, 0
503.8837, 17, 418, 116, -72.69231, 0
503.904, 17, 418, 116, -72.69231, 0
503.9205, 16, 418, 116, -72.69231, 0
503.9414, 16, 418, 116, -72.69231, 0
503.9609, 17, 418, 116, -72.69231, 0
503.9812, 17, 418, 116, -72.69231, 0
504.0027, 17, 418, 116, -72.69231, 0
504.0233, 16, 418, 116, -72.69231, 0
504.0396, 16, 418, 116, -72.69231, 0
504.0604, 16, 417, 116, -72.69231, 0
504.0863, 16, 417, 116, -72.69231, 0
504.1086, 16, 417, 116, -72.69231, 0
504.1244, 16, 418, 116, -72.69231, 0
504.1398, 16, 417, 116, -72.69231, 0
504.158, 17, 418, 116, -72.69231, 0
504.1778, 17, 418, 116, -72.69231, 0
504.1986, 17, 418, 116, -72.69231, 0
504.219, 17, 417, 116, -72.69231, 0
504.2397, 16, 417, 116, -72.69231, 0
504.2589, 17, 418, 116, -72.69231, 0
504.2779, 17, 417, 116, -72.69231, 0
504.2976, 16, 418, 116, -72.69231, 0
504.3171, 16, 418, 116, -72.69231, 0
504.3376, 17, 417, 116, -72.69231, 0
504.3589, 16, 418, 116, -72.69231, 0
504.3761, 17, 418, 116, -72.69231, 0
504.3949, 17, 418, 116, -72.69231, 0
504.4156, 17, 418, 116, -72.69231, 0
504.4358, 17, 418, 116, -72.69231, 0
504.4567, 17, 417, 116, -72.69231, 0
504.4773, 16, 417, 116, -72.69231, 0
504.4937, 17, 418, 116, -72.69231, 0
504.5148, 17, 417, 116, -72.69231, 0
504.5344, 16, 418, 116, -72.69231, 0
504.5545, 16, 418, 116, -72.69231, 0
504.5764, 16, 418, 116, -72.69231, 0
504.5974, 17, 418, 116, -72.69231, 0
504.6156, 17, 418, 116, -72.69231, 0
504.636, 16, 418, 116, -72.69231, 0
504.6561, 16, 418, 116, -72.69231, 0
504.6764, 17, 418, 116, -72.69231, 0
504.6967, 17, 417, 116, -72.69231, 0
504.7166, 16, 418, 116, -72.69231, 0
504.7337, 17, 418, 116, -72.69231, 0
504.7534, 17, 418, 116, -72.69231, 0
504.7734, 16, 418, 116, -72.69231, 0
504.795, 16, 418, 116, -72.69231, 0
504.8157, 16, 418, 116, -72.69231, 0
504.8311, 17, 418, 116, -72.69231, 0
504.8512, 17, 418, 116, -72.69231, 0
504.8716, 17, 417, 116, -72.69231, 0
504.8935, 17, 418, 116, -72.69231, 0
504.9135, 16, 418, 116, -72.69231, 0
504.9333, 16, 418, 116, -72.69231, 0
504.9502, 17, 418, 116, -72.69231, 0
504.97, 17, 417, 116, -72.69231, 0
504.9903, 16, 418, 116, -72.69231, 0
505.0102, 16, 418, 116, -72.69231, 0
505.0305, 16, 418, 116, -72.69231, 0
505.0505, 17, 418, 116, -72.69231, 0
505.0665, 16, 417, 116, -72.69231, 0
505.0871, 17, 418, 116, -72.69231, 0
505.1083, 17, 418, 116, -72.69231, 0
505.1281, 17, 418, 116, -72.69231, 0
505.1485, 16, 418, 116, -72.69231, 0
505.169, 17, 418, 116, -72.69231, 0
505.1859, 17, 418, 116, -72.69231, 0
505.209, 16, 418, 116, -72.69231, 0
505.2295, 17, 418, 116, -72.69231, 0
505.2488, 16, 418, 116, -72.69231, 0
505.2687, 17, 418, 116, -72.69231, 0
505.2893, 17, 418, 116, -72.69231, 0
505.3066, 16, 418, 116, -72.69231, 0
505.3275, 17, 418, 116, -72.69231, 0
505.3451, 16, 418, 116, -72.69231, 0
505.3656, 17, 418, 116, -72.69231, 0
505.386, 16, 418, 116, -72.69231, 0
505.4082, 17, 418, 116, -72.69231, 0
505.4244, 17, 418, 116, -72.69231, 0
505.4443, 16, 418, 116, -72.69231, 0
505.4646, 17, 418, 116, -72.69231, 0
505.4861, 17, 418, 116, -72.69231, 0
505.5066, 17, 418, 116, -72.69231, 0
505.5243, 17, 418, 116, -72.69231, 0
505.5465, 17, 418, 116, -72.69231, 0
505.5628, 17, 418, 116, -72.69231, 0
505.5848, 17, 417, 116, -72.69231, 0
505.6071, 17, 418, 116, -72.69231, 0
505.6253, 16, 418, 116, -72.69231, 0
505.6432, 16, 418, 116, -72.69231, 0
505.6705, 16, 418, 116, -72.69231, 0
505.6812, 16, 418, 116, -72.69231, 0
505.7035, 17, 418, 116, -72.69231, 0
505.7251, 16, 418, 116, -72.69231, 0
505.7456, 17, 418, 116, -72.69231, 0
505.7592, 17, 418, 116, -72.69231, 0
505.7792, 16, 418, 116, -72.69231, 0
505.7998, 17, 418, 116, -72.69231, 0
505.8203, 17, 417, 116, -72.69231, 0
505.8412, 16, 418, 116, -72.69231, 0
505.8634, 17, 418, 116, -72.69231, 0
505.8778, 16, 418, 116, -72.69231, 0
505.8979, 17, 418, 116, -72.69231, 0
505.9189, 17, 418, 116, -72.69231, 0
505.9388, 17, 418, 116, -72.69231, 0
505.9604, 17, 419, 116, -72.69231, 0
505.9799, 16, 419, 116, -72.69231, 0
505.9967, 17, 419, 116, -72.69231, 0
506.0167, 16, 419, 116, -72.69231, 0
506.0373, 16, 419, 116, -72.69231, 0
506.0587, 16, 419, 116, -72.69231, 0
506.0781, 16, 418, 116, -72.69231, 0
506.0984, 16, 418, 116, -72.69231, 0
506.1159, 16, 419, 116, -72.69231, 0
506.1364, 16, 418, 116, -72.69231, 0
506.1563, 17, 418, 116, -72.69231, 0
506.1771, 16, 419, 116, -72.69231, 0
506.197, 17, 419, 116, -72.69231, 0
506.2144, 17, 419, 116, -72.69231, 0
506.2339, 16, 418, 116, -72.69231, 0
506.2548, 16, 419, 116, -72.69231, 0
506.2758, 17, 418, 116, -72.69231, 0
506.2951, 16, 419, 116, -72.69231, 0
506.3159, 17, 419, 116, -72.69231, 0
506.3325, 17, 419, 116, -72.69231, 0
506.3539, 17, 418, 116, -72.69231, 0
506.3746, 17, 419, 116, -72.69231, 0
506.394, 17, 419, 116, -72.69231, 0
506.414, 16, 418, 116, -72.69231, 0
506.4348, 17, 418, 116, -72.69231, 0
506.4507, 16, 418, 116, -72.69231, 0
506.4715, 17, 419, 116, -72.69231, 0
506.4957, 17, 419, 116, -72.69231, 0
506.5126, 17, 419, 116, -72.69231, 0
506.5335, 16, 419, 116, -72.69231, 0
506.5534, 17, 419, 116, -72.69231, 0
506.5699, 16, 419, 116, -72.69231, 0
506.5911, 16, 419, 116, -72.69231, 0
506.6108, 16, 418, 116, -72.69231, 0
506.6313, 17, 419, 116, -72.69231, 0
506.6535, 17, 419, 116, -72.69231, 0
506.6762, 17, 419, 116, -72.69231, 0
506.6926, 16, 419, 116, -72.69231, 0
506.7101, 16, 419, 116, -72.69231, 0
506.7295, 17, 419, 116, -72.69231, 0
506.7501, 17, 419, 116, -72.69231, 0
506.7705, 16, 419, 116, -72.69231, 0
506.7916, 17, 419, 116, -72.69231, 0
506.8086, 17, 419, 116, -72.69231, 0
506.8277, 16, 419, 116, -72.69231, 0
506.8482, 17, 419, 116, -72.69231, 0
506.869, 16, 419, 116, -72.69231, 0
506.8891, 17, 418, 116, -72.69231, 0
506.906, 16, 419, 116, -72.69231, 0
506.9271, 16, 419, 116, -72.69231, 0
506.9466, 17, 419, 116, -72.69231, 0
506.9671, 16, 419, 116, -72.69231, 0
506.9872, 17, 419, 116, -72.69231, 0
507.0089, 16, 419, 116, -72.69231, 0
507.0256, 16, 419, 116, -72.69231, 0
507.0448, 16, 419, 116, -72.69231, 0
507.0653, 16, 419, 116, -72.69231, 0
507.0858, 17, 419, 116, -72.69231, 0
507.1068, 16, 419, 116, -72.69231, 0
507.1272, 16, 419, 116, -72.69231, 0
507.144, 16, 419, 116, -72.69231, 0
507.1639, 16, 419, 116, -72.69231, 0
507.1841, 17, 419, 116, -72.69231, 0
507.2045, 17, 419, 116, -72.69231, 0
507.226, 17, 419, 116, -72.69231, 0
507.2458, 16, 419, 116, -72.69231, 0
507.2627, 17, 418, 116, -72.69231, 0
507.2823, 17, 419, 116, -72.69231, 0
507.3036, 17, 419, 116, -72.69231, 0
507.3241, 17, 419, 116, -72.69231, 0
507.3441, 16, 419, 116, -72.69231, 0
507.3651, 16, 419, 116, -72.69231, 0
507.3808, 16, 419, 116, -72.69231, 0
507.4036, 17, 419, 116, -72.69231, 0
507.4215, 17, 419, 116, -72.69231, 0
507.4443, 17, 419, 116, -72.69231, 0
507.4629, 17, 419, 116, -72.69231, 0
507.4836, 17, 419, 116, -72.69231, 0
507.4995, 17, 419, 116, -72.69231, 0
507.5199, 16, 418, 116, -72.69231, 0
507.5407, 16, 419, 116, -72.69231, 0
507.561, 17, 418, 116, -72.69231, 0
507.5815, 17, 419, 116, -72.69231, 0
507.5987, 16, 419, 116, -72.69231, 0
507.6182, 16, 418, 116, -72.69231, 0
507.6385, 17, 419, 116, -72.69231, 0
507.6605, 17, 419, 116, -72.69231, 0
507.6797, 17, 419, 116, -72.69231, 0
507.7001, 17, 418, 116, -72.69231, 0
507.7164, 17, 419, 116, -72.69231, 0
507.7376, 16, 419, 116, -72.69231, 0
507.7576, 16, 419, 116, -72.69231, 0
507.7778, 17, 419, 116, -72.69231, 0
507.7983, 17, 419, 116, -72.69231, 0
507.8186, 17, 419, 116, -72.69231, 0
507.8353, 17, 419, 116, -72.69231, 0
507.8558, 16, 419, 116, -72.69231, 0
507.877, 16, 420, 116, -72.69231, 0
507.8968, 16, 419, 116, -72.69231, 0
507.9173, 17, 419, 116, -72.69231, 0
507.9378, 17, 419, 116, -72.69231, 0
507.9544, 17, 419, 116, -72.69231, 0
507.9756, 17, 419, 116, -72.69231, 0
507.9951, 17, 419, 116, -72.69231, 0
508.0157, 17, 419, 116, -72.69231, 0
508.0359, 17, 419, 116, -72.69231, 0
508.0568, 16, 419, 116, -72.69231, 0
508.075, 16, 419, 116, -72.69231, 0
508.0951, 16, 419, 116, -72.69231, 0
508.1137, 17, 419, 116, -72.69231, 0
508.1343, 16, 419, 116, -72.69231, 0
508.1547, 17, 418, 116, -72.69231, 0
508.1761, 17, 418, 116, -72.69231, 0
508.1928, 16, 418, 116, -72.69231, 0
508.2125, 17, 418, 116, -72.69231, 0
508.2331, 17, 419, 116, -72.69231, 0
508.2538, 16, 418, 116, -72.69231, 0
508.2739, 17, 419, 116, -72.69231, 0
508.2919, 17, 418, 116, -72.69231, 0
508.3109, 17, 419, 116, -72.69231, 0
508.3307, 16, 418, 115, -73.38461, 0
508.3515, 17, 419, 116, -72.69231, 0
508.3734, 16, 418, 116, -72.69231, 0
508.3935, 16, 419, 116, -72.69231, 0
508.4098, 16, 419, 116, -72.69231, 0
508.4292, 16, 419, 116, -72.69231, 0
508.4498, 16, 419, 115, -73.38461, 0
508.4701, 17, 419, 116, -72.69231, 0
508.4908, 16, 418, 116, -72.69231, 0
508.5112, 17, 419, 116, -72.69231, 0
508.5275, 17, 419, 115, -73.38461, 0
508.548, 17, 419, 115, -73.38461, 0
508.5694, 17, 419, 116, -72.69231, 0
508.5888, 17, 419, 116, -72.69231, 0
508.6104, 16, 420, 116, -72.69231, 0
508.6301, 16, 419, 116, -72.69231, 0
508.6464, 16, 418, 116, -72.69231, 0
508.6667, 17, 418, 116, -72.69231, 0
508.6874, 17, 419, 116, -72.69231, 0
508.7086, 17, 419, 116, -72.69231, 0
508.7283, 17, 418, 116, -72.69231, 0
508.7491, 16, 419, 116, -72.69231, 0
508.7657, 17, 419, 116, -72.69231, 0
508.7856, 17, 419, 116, -72.69231, 0
508.806, 17, 419, 116, -72.69231, 0
508.8273, 17, 418, 116, -72.69231, 0
508.847, 17, 419, 116, -72.69231, 0
508.8674, 17, 419, 116, -72.69231, 0
508.8836, 16, 419, 116, -72.69231, 0
508.9044, 17, 419, 116, -72.69231, 0
508.9258, 16, 419, 116, -72.69231, 0
508.945, 16, 418, 116, -72.69231, 0
508.9661, 16, 418, 116, -72.69231, 0
508.9867, 16, 418, 116, -72.69231, 0
509.0035, 16, 418, 116, -72.69231, 0
509.0238, 16, 418, 116, -72.69231, 0
509.0441, 17, 419, 116, -72.69231, 0
509.0641, 17, 418, 116, -72.69231, 0
509.0844, 16, 418, 116, -72.69231, 0
509.1029, 16, 418, 116, -72.69231, 0
509.1238, 16, 419, 115, -73.38461, 0
509.1447, 17, 419, 115, -73.38461, 0
509.1635, 17, 418, 116, -72.69231, 0
509.1848, 16, 418, 116, -72.69231, 0
509.2057, 16, 419, 116, -72.69231, 0
509.2231, 17, 418, 115, -73.38461, 0
509.2424, 17, 418, 116, -72.69231, 0
509.2628, 17, 419, 115, -73.38461, 0
509.2829, 17, 418, 116, -72.69231, 0
509.3016, 17, 418, 116, -72.69231, 0
509.3229, 17, 418, 116, -72.69231, 0
509.3395, 16, 418, 116, -72.69231, 0
509.3597, 16, 418, 116, -72.69231, 0
509.3793, 16, 419, 116, -72.69231, 0
509.3999, 17, 418, 116, -72.69231, 0
509.4211, 17, 418, 116, -72.69231, 0
509.4407, 16, 418, 116, -72.69231, 0
509.4577, 16, 418, 116, -72.69231, 0
509.4776, 17, 418, 116, -72.69231, 0
509.4983, 16, 418, 116, -72.69231, 0
509.5184, 17, 418, 116, -72.69231, 0
509.5389, 17, 418, 116, -72.69231, 0
509.5603, 16, 418, 116, -72.69231, 0
509.5773, 16, 418, 116, -72.69231, 0
509.5966, 17, 418, 116, -72.69231, 0
509.6169, 17, 419, 116, -72.69231, 0
509.638, 17, 418, 116, -72.69231, 0
509.6588, 16, 418, 116, -72.69231, 0
509.6784, 16, 419, 116, -72.69231, 0
509.6948, 16, 419, 116, -72.69231, 0
509.715, 17, 419, 116, -72.69231, 0
509.7357, 17, 419, 116, -72.69231, 0
509.7563, 17, 419, 116, -72.69231, 0
509.7771, 17, 419, 116, -72.69231, 0
509.7937, 17, 419, 116, -72.69231, 0
509.8138, 16, 419, 116, -72.69231, 0
509.8347, 17, 419, 116, -72.69231, 0
509.8547, 17, 419, 116, -72.69231, 0
509.8759, 17, 419, 116, -72.69231, 0
509.8954, 16, 419, 116, -72.69231, 0
509.912, 17, 419, 116, -72.69231, 0
509.9324, 17, 420, 116, -72.69231, 0
509.9554, 17, 419, 116, -72.69231, 0
509.977, 16, 419, 116, -72.69231, 0
509.9973, 17, 419, 116, -72.69231, 0
510.0166, 17, 419, 116, -72.69231, 0
510.0338, 16, 419, 116, -72.69231, 0
510.0553, 17, 419, 116, -72.69231, 0
510.0755, 16, 420, 116, -72.69231, 0
510.0952, 16, 419, 116, -72.69231, 0
510.1148, 17, 419, 116, -72.69231, 0
510.135, 17, 419, 116, -72.69231, 0
510.1526, 17, 420, 116, -72.69231, 0
510.1727, 17, 420, 116, -72.69231, 0
510.1931, 17, 420, 116, -72.69231, 0
510.2147, 16, 419, 116, -72.69231, 0
510.2343, 17, 419, 116, -72.69231, 0
510.2549, 17, 419, 116, -72.69231, 0
510.2734, 17, 419, 116, -72.69231, 0
510.2888, 17, 419, 116, -72.69231, 0
510.3099, 16, 420, 116, -72.69231, 0
510.3298, 17, 419, 116, -72.69231, 0
510.35, 17, 419, 116, -72.69231, 0
510.3663, 17, 419, 116, -72.69231, 0
510.3871, 17, 420, 116, -72.69231, 0
510.4081, 16, 419, 116, -72.69231, 0
510.4281, 17, 419, 116, -72.69231, 0
510.4483, 16, 420, 116, -72.69231, 0
510.4687, 16, 419, 116, -72.69231, 0
510.4852, 17, 420, 116, -72.69231, 0
510.5055, 17, 420, 116, -72.69231, 0
510.5271, 16, 419, 116, -72.69231, 0
510.5465, 17, 420, 116, -72.69231, 0
510.5671, 17, 420, 116, -72.69231, 0
510.5874, 16, 420, 116, -72.69231, 0
510.6046, 16, 420, 116, -72.69231, 0
510.6253, 17, 420, 116, -72.69231, 0
510.6448, 17, 420, 115, -73.38461, 0
510.6656, 17, 420, 116, -72.69231, 0
510.6861, 16, 420, 116, -72.69231, 0
510.7078, 16, 419, 116, -72.69231, 0
510.7246, 16, 419, 116, -72.69231, 0
510.7439, 16, 419, 116, -72.69231, 0
510.7642, 17, 419, 116, -72.69231, 0
510.7843, 17, 419, 116, -72.69231, 0
510.8044, 17, 419, 116, -72.69231, 0
510.8251, 17, 419, 116, -72.69231, 0
510.8432, 16, 419, 116, -72.69231, 0
510.8627, 17, 419, 116, -72.69231, 0
510.8828, 16, 420, 116, -72.69231, 0
510.9034, 17, 419, 116, -72.69231, 0
510.9239, 17, 418, 116, -72.69231, 0
510.944, 17, 419, 116, -72.69231, 0
510.9606, 16, 419, 116, -72.69231, 0
510.9807, 17, 419, 116, -72.69231, 0
511.0014, 17, 419, 116, -72.69231, 0
511.0215, 17, 418, 116, -72.69231, 0
511.0434, 16, 419, 116, -72.69231, 0
511.0632, 16, 419, 116, -72.69231, 0
511.0792, 16, 419, 116, -72.69231, 0
511.0995, 16, 419, 116, -72.69231, 0
511.1201, 17, 419, 116, -72.69231, 0
511.1408, 16, 419, 116, -72.69231, 0
511.1613, 17, 419, 116, -72.69231, 0
511.1776, 16, 419, 116, -72.69231, 0
511.1981, 16, 419, 116, -72.69231, 0
511.2184, 16, 419, 116, -72.69231, 0
511.2393, 17, 419, 116, -72.69231, 0
511.2603, 16, 418, 116, -72.69231, 0
511.2797, 16, 419, 116, -72.69231, 0
511.296, 17, 419, 116, -72.69231, 0
511.3174, 17, 419, 116, -72.69231, 0
511.3369, 16, 419, 116, -72.69231, 0
511.3578, 16, 418, 116, -72.69231, 0
511.3782, 16, 419, 116, -72.69231, 0
511.3985, 17, 419, 116, -72.69231, 0
511.4147, 17, 419, 116, -72.69231, 0
511.4352, 16, 419, 116, -72.69231, 0
511.4558, 17, 418, 115, -73.38461, 0
511.477, 16, 418, 116, -72.69231, 0
511.4968, 17, 418, 115, -73.38461, 0
511.5174, 17, 418, 116, -72.69231, 0
511.5339, 17, 418, 116, -72.69231, 0
511.5543, 16, 418, 116, -72.69231, 0
511.5754, 16, 419, 116, -72.69231, 0
511.5951, 16, 419, 116, -72.69231, 0
511.6158, 17, 419, 116, -72.69231, 0
511.6359, 16, 419, 116, -72.69231, 0
511.6525, 17, 419, 116, -72.69231, 0
511.6736, 17, 418, 116, -72.69231, 0
511.6942, 17, 419, 116, -72.69231, 0
511.7139, 16, 418, 115, -73.38461, 0
511.7343, 17, 418, 116, -72.69231, 0
511.7547, 17, 419, 116, -72.69231, 0
511.7713, 17, 419, 116, -72.69231, 0
511.7926, 17, 419, 116, -72.69231, 0
511.8125, 17, 419, 116, -72.69231, 0
511.8333, 16, 418, 116, -72.69231, 0
511.8536, 17, 419, 116, -72.69231, 0
511.8697, 16, 419, 116, -72.69231, 0
511.8905, 17, 418, 116, -72.69231, 0
511.9109, 16, 419, 116, -72.69231, 0
511.9309, 17, 418, 116, -72.69231, 0
511.9515, 16, 419, 116, -72.69231, 0
511.9718, 17, 418, 116, -72.69231, 0
511.9885, 17, 419, 115, -73.38461, 0
512.0098, 16, 419, 116, -72.69231, 0
512.0293, 16, 419, 116, -72.69231, 0
512.0508, 17, 419, 116, -72.69231, 0
512.0703, 16, 419, 116, -72.69231, 0
512.0909, 17, 419, 115, -73.38461, 0
512.1079, 17, 418, 116, -72.69231, 0
512.1281, 17, 418, 116, -72.69231, 0
512.1481, 17, 418, 116, -72.69231, 0
512.1687, 16, 419, 116, -72.69231, 0
512.1888, 16, 419, 116, -72.69231, 0
512.2102, 17, 419, 116, -72.69231, 0
512.2286, 17, 419, 116, -72.69231, 0
512.2468, 17, 419, 116, -72.69231, 0
512.267, 16, 419, 116, -72.69231, 0
512.2873, 17, 419, 116, -72.69231, 0
512.3088, 16, 419, 116, -72.69231, 0
512.3282, 16, 419, 116, -72.69231, 0
512.3448, 16, 420, 116, -72.69231, 0
512.3649, 16, 420, 116, -72.69231, 0
512.3855, 17, 420, 116, -72.69231, 0
512.4063, 16, 419, 116, -72.69231, 0
512.4271, 16, 419, 116, -72.69231, 0
512.4472, 17, 418, 116, -72.69231, 0
512.4634, 16, 418, 116, -72.69231, 0
512.4838, 17, 418, 116, -72.69231, 0
512.5043, 17, 418, 116, -72.69231, 0
512.5257, 17, 418, 116, -72.69231, 0
512.5457, 16, 419, 116, -72.69231, 0
512.5618, 17, 419, 115, -73.38461, 0
512.5831, 17, 418, 115, -73.38461, 0
512.603, 16, 418, 116, -72.69231, 0
512.6237, 17, 418, 116, -72.69231, 0
512.6442, 17, 418, 116, -72.69231, 0
512.6641, 16, 418, 116, -72.69231, 0
512.6805, 16, 419, 116, -72.69231, 0
512.7009, 17, 419, 115, -73.38461, 0
512.7236, 17, 419, 115, -73.38461, 0
512.743, 17, 419, 116, -72.69231, 0
512.7629, 17, 419, 115, -73.38461, 0
512.7838, 16, 420, 116, -72.69231, 0
512.7995, 16, 419, 116, -72.69231, 0
512.8197, 16, 420, 116, -72.69231, 0
512.8402, 16, 419, 116, -72.69231, 0
512.8624, 16, 419, 116, -72.69231, 0
512.8827, 17, 418, 116, -72.69231, 0
512.9017, 16, 418, 116, -72.69231, 0
512.9216, 16, 418, 115, -73.38461, 0
512.9385, 16, 418, 115, -73.38461, 0
512.9614, 16, 419, 116, -72.69231, 0
512.9803, 17, 418, 116, -72.69231, 0
512.9999, 17, 418, 116, -72.69231, 0
513.0206, 16, 419, 116, -72.69231, 0
513.0367, 16, 419, 115, -73.38461, 0
513.0576, 16, 419, 116, -72.69231, 0
513.0779, 17, 419, 116, -72.69231, 0
513.0983, 16, 419, 116, -72.69231, 0
513.1188, 17, 419, 116, -72.69231, 0
513.1394, 16, 419, 116, -72.69231, 0
513.1564, 16, 419, 116, -72.69231, 0
513.1769, 17, 420, 115, -73.38461, 0
513.1967, 17, 420, 116, -72.69231, 0
513.2172, 17, 419, 116, -72.69231, 0
513.2375, 17, 419, 116, -72.69231, 0
513.2591, 17, 419, 116, -72.69231, 0
513.2769, 16, 419, 115, -73.38461, 0
513.295, 17, 419, 115, -73.38461, 0
513.3156, 16, 419, 116, -72.69231, 0
513.3357, 17, 419, 116, -72.69231, 0
513.3563, 16, 419, 116, -72.69231, 0
513.3735, 17, 420, 116, -72.69231, 0
513.3938, 16, 419, 116, -72.69231, 0
513.4135, 16, 419, 115, -73.38461, 0
513.4343, 16, 419, 116, -72.69231, 0
513.4545, 16, 419, 116, -72.69231, 0
513.4758, 17, 418, 116, -72.69231, 0
513.4924, 16, 419, 116, -72.69231, 0
513.5122, 16, 419, 116, -72.69231, 0
513.5328, 16, 419, 116, -72.69231, 0
513.5534, 16, 419, 116, -72.69231, 0
513.5761, 16, 419, 116, -72.69231, 0
513.5953, 16, 419, 116, -72.69231, 0
513.6124, 16, 419, 115, -73.38461, 0
513.6319, 17, 419, 116, -72.69231, 0
513.653, 17, 419, 115, -73.38461, 0
513.6734, 17, 419, 116, -72.69231, 0
513.6974, 16, 419, 116, -72.69231, 0
513.715, 16, 419, 116, -72.69231, 0
513.731, 16, 420, 115, -73.38461, 0
513.7512, 17, 420, 116, -72.69231, 0
513.7704, 16, 420, 115, -73.38461, 0
513.793, 17, 419, 116, -72.69231, 0
513.8126, 16, 420, 116, -72.69231, 0
513.8327, 16, 420, 116, -72.69231, 0
513.8493, 17, 420, 116, -72.69231, 0
513.8713, 17, 419, 115, -73.38461, 0
513.8912, 17, 419, 116, -72.69231, 0
513.912, 17, 419, 115, -73.38461, 0
513.9328, 17, 419, 116, -72.69231, 0
513.9523, 16, 419, 115, -73.38461, 0
513.9695, 16, 419, 115, -73.38461, 0
513.9888, 16, 419, 115, -73.38461, 0
514.0106, 16, 420, 116, -72.69231, 0
514.0283, 17, 419, 115, -73.38461, 0
514.049, 17, 419, 116, -72.69231, 0
514.066, 16, 419, 115, -73.38461, 0
514.0855, 16, 419, 116, -72.69231, 0
514.1058, 16, 419, 115, -73.38461, 0
514.127, 16, 419, 115, -73.38461, 0
514.147, 17, 419, 116, -72.69231, 0
514.1671, 17, 419, 115, -73.38461, 0
514.1836, 16, 420, 116, -72.69231, 0
514.2041, 17, 419, 115, -73.38461, 0
514.2292, 16, 419, 116, -72.69231, 0
514.249, 16, 419, 116, -72.69231, 0
514.2675, 17, 419, 115, -73.38461, 0
514.2878, 16, 419, 116, -72.69231, 0
514.3044, 17, 419, 115, -73.38461, 0
514.3254, 17, 419, 115, -73.38461, 0
514.3459, 17, 419, 115, -73.38461, 0
514.364, 16, 419, 116, -72.69231, 0
514.3844, 17, 419, 115, -73.38461, 0
514.4067, 16, 419, 116, -72.69231, 0
514.4254, 16, 420, 116, -72.69231, 0
514.4431, 16, 419, 116, -72.69231, 0
514.4631, 16, 419, 116, -72.69231, 0
514.4847, 16, 419, 116, -72.69231, 0
514.505, 16, 419, 116, -72.69231, 0
514.5254, 16, 419, 116, -72.69231, 0
514.5411, 16, 419, 115, -73.38461, 0
514.5624, 16, 419, 115, -73.38461, 0
514.5811, 16, 419, 116, -72.69231, 0
514.6012, 16, 419, 116, -72.69231, 0
514.6219, 17, 419, 115, -73.38461, 0
514.6432, 17, 419, 115, -73.38461, 0
514.6602, 16, 420, 116, -72.69231, 0
514.6827, 17, 419, 116, -72.69231, 0
514.7025, 16, 420, 116, -72.69231, 0
514.7217, 16, 420, 115, -73.38461, 0
514.7432, 17, 419, 115, -73.38461, 0
514.761, 17, 419, 115, -73.38461, 0
514.7793, 17, 419, 115, -73.38461, 0
514.8, 16, 420, 116, -72.69231, 0
514.8198, 16, 420, 116, -72.69231, 0
514.8401, 17, 419, 115, -73.38461, 0
514.8605, 16, 419, 116, -72.69231, 0
514.8762, 17, 419, 115, -73.38461, 0
514.8962, 16, 419, 115, -73.38461, 0
514.9171, 16, 420, 115, -73.38461, 0
514.937, 17, 419, 115, -73.38461, 0
514.9584, 17, 419, 115, -73.38461, 0
514.9791, 17, 419, 115, -73.38461, 0
514.9957, 17, 420, 115, -73.38461, 0
515.0151, 16, 419, 115, -73.38461, 0
515.0391, 17, 419, 115, -73.38461, 0
515.0577, 17, 420, 116, -72.69231, 0
515.0771, 16, 419, 115, -73.38461, 0
515.0971, 17, 419, 115, -73.38461, 0
515.1143, 16, 419, 115, -73.38461, 0
515.1341, 17, 420, 115, -73.38461, 0
515.1545, 16, 419, 116, -72.69231, 0
515.1761, 17, 419, 116, -72.69231, 0
515.1951, 16, 420, 116, -72.69231, 0
515.2169, 16, 419, 115, -73.38461, 0
515.2341, 17, 419, 115, -73.38461, 0
515.2537, 17, 419, 115, -73.38461, 0
515.2745, 17, 419, 115, -73.38461, 0
515.2939, 16, 419, 116, -72.69231, 0
515.3145, 16, 420, 115, -73.38461, 0
515.335, 17, 419, 115, -73.38461, 0
515.3518, 16, 419, 115, -73.38461, 0
515.3717, 17, 420, 115, -73.38461, 0
515.3929, 16, 419, 116, -72.69231, 0
515.4133, 16, 419, 116, -72.69231, 0
515.4353, 16, 419, 115, -73.38461, 0
515.4559, 17, 419, 116, -72.69231, 0
515.4729, 16, 419, 115, -73.38461, 0
515.4928, 16, 419, 115, -73.38461, 0
515.5131, 16, 420, 116, -72.69231, 0
515.5329, 16, 420, 115, -73.38461, 0
515.5532, 16, 419, 116, -72.69231, 0
515.57, 16, 419, 115, -73.38461, 0
515.5886, 17, 420, 115, -73.38461, 0
515.611, 16, 419, 115, -73.38461, 0
515.6302, 17, 419, 115, -73.38461, 0
515.6509, 17, 419, 115, -73.38461, 0
515.6705, 17, 419, 116, -72.69231, 0
515.6869, 17, 420, 115, -73.38461, 0
515.7075, 16, 419, 115, -73.38461, 0
515.7283, 16, 419, 115, -73.38461, 0
515.7482, 17, 419, 116, -72.69231, 0
515.7708, 16, 419, 116, -72.69231, 0
515.7907, 17, 419, 116, -72.69231, 0
515.8075, 17, 419, 116, -72.69231, 0
515.8278, 17, 419, 115, -73.38461, 0
515.8481, 17, 419, 115, -73.38461, 0
515.8687, 17, 419, 115, -73.38461, 0
515.8875, 17, 419, 115, -73.38461, 0
515.9104, 17, 420, 115, -73.38461, 0
515.9254, 16, 419, 115, -73.38461, 0
515.946, 16, 419, 116, -72.69231, 0
515.9699, 16, 419, 116, -72.69231, 0
515.9857, 17, 419, 115, -73.38461, 0
516.0065, 17, 419, 115, -73.38461, 0
516.0273, 17, 419, 116, -72.69231, 0
516.0444, 17, 419, 116, -72.69231, 0
516.0635, 16, 419, 115, -73.38461, 0
516.0847, 16, 420, 115, -73.38461, 0
516.1048, 16, 419, 115, -73.38461, 0
516.1257, 17, 419, 116, -72.69231, 0
516.1429, 17, 419, 115, -73.38461, 0
516.162, 17, 419, 115, -73.38461, 0
516.1829, 16, 419, 115, -73.38461, 0
516.2031, 17, 419, 115, -73.38461, 0
516.2244, 17, 419, 115, -73.38461, 0
516.2448, 16, 419, 115, -73.38461, 0
516.2612, 16, 419, 115, -73.38461, 0
516.2811, 17, 419, 115, -73.38461, 0
516.3011, 17, 420, 115, -73.38461, 0
516.322, 16, 420, 115, -73.38461, 0
516.3442, 16, 420, 116, -72.69231, 0
516.363, 17, 419, 115, -73.38461, 0
516.3791, 17, 419, 115, -73.38461, 0
516.3994, 16, 419, 115, -73.38461, 0
516.4199, 16, 420, 115, -73.38461, 0
516.4416, 17, 419, 116, -72.69231, 0
516.4637, 17, 419, 116, -72.69231, 0
516.4837, 16, 419, 115, -73.38461, 0
516.4999, 17, 419, 115, -73.38461, 0
516.5198, 17, 419, 115, -73.38461, 0
516.54, 17, 420, 115, -73.38461, 0
516.5612, 16, 419, 115, -73.38461, 0
516.58, 16, 419, 115, -73.38461, 0
516.6005, 16, 420, 115, -73.38461, 0
516.6166, 16, 420, 115, -73.38461, 0
516.637, 16, 420, 115, -73.38461, 0
516.6574, 16, 420, 115, -73.38461, 0
516.6782, 16, 420, 115, -73.38461, 0
516.6985, 17, 419, 116, -72.69231, 0
516.7188, 17, 420, 115, -73.38461, 0
516.7352, 16, 419, 115, -73.38461, 0
516.7557, 17, 419, 115, -73.38461, 0
516.7769, 17, 419, 115, -73.38461, 0
516.7967, 17, 419, 116, -72.69231, 0
516.8173, 17, 419, 115, -73.38461, 0
516.8336, 17, 420, 115, -73.38461, 0
516.8542, 16, 419, 115, -73.38461, 0
516.8757, 16, 419, 115, -73.38461, 0
516.8951, 17, 419, 115, -73.38461, 0
516.9185, 16, 419, 116, -72.69231, 0
516.9388, 16, 419, 115, -73.38461, 0
516.9564, 17, 419, 115, -73.38461, 0
516.975, 17, 418, 115, -73.38461, 0
516.9954, 17, 419, 115, -73.38461, 0
517.0139, 17, 419, 115, -73.38461, 0
517.0347, 17, 419, 115, -73.38461, 0
517.0546, 16, 419, 115, -73.38461, 0
517.0714, 16, 419, 115, -73.38461, 0
517.0928, 16, 419, 115, -73.38461, 0
517.1124, 16, 419, 115, -73.38461, 0
517.1329, 17, 419, 115, -73.38461, 0
517.1534, 17, 419, 115, -73.38461, 0
517.1739, 17, 419, 115, -73.38461, 0
517.1912, 16, 420, 115, -73.38461, 0
517.2121, 16, 421, 115, -73.38461, 0
517.2311, 16, 421, 115, -73.38461, 0
517.2513, 17, 420, 115, -73.38461, 0
517.2729, 17, 419, 115, -73.38461, 0
517.294, 17, 420, 115, -73.38461, 0
517.3099, 16, 420, 115, -73.38461, 0
517.329, 17, 419, 115, -73.38461, 0
517.3495, 17, 420, 115, -73.38461, 0
517.3701, 16, 419, 115, -73.38461, 0
517.393, 16, 420, 115, -73.38461, 0
517.4111, 16, 420, 115, -73.38461, 0
517.4274, 17, 420, 115, -73.38461, 0
517.4478, 17, 420, 115, -73.38461, 0
517.4683, 17, 419, 115, -73.38461, 0
517.4887, 17, 419, 115, -73.38461, 0
517.5101, 17, 419, 115, -73.38461, 0
517.5267, 16, 419, 115, -73.38461, 0
517.5465, 16, 418, 116, -72.69231, 0
517.5668, 16, 419, 115, -73.38461, 0
517.5871, 17, 418, 115, -73.38461, 0
517.6084, 17, 419, 115, -73.38461, 0
517.6282, 17, 418, 115, -73.38461, 0
517.6447, 16, 418, 115, -73.38461, 0
517.6648, 17, 418, 115, -73.38461, 0
517.6854, 17, 418, 115, -73.38461, 0
517.7062, 17, 418, 115, -73.38461, 0
517.7271, 16, 418, 115, -73.38461, 0
517.7469, 17, 418, 115, -73.38461, 0
517.7635, 16, 418, 115, -73.38461, 0
517.7836, 17, 417, 115, -73.38461, 0
517.8044, 17, 417, 115, -73.38461, 0
517.8262, 16, 416, 116, -72.69231, 0
517.8453, 16, 416, 116, -72.69231, 0
517.8658, 17, 414, 116, -72.69231, 0
517.8822, 17, 412, 116, -72.69231, 0
517.9027, 17, 409, 116, -72.69231, 0
517.9235, 16, 406, 116, -72.69231, 0
517.944, 16, 404, 117, -72, 0
517.9641, 16, 401, 117, -72, 0
517.9845, 17, 398, 117, -72, 180
518.0008, 16, 399, 106, -79.61539, 180
518.0214, 16, 413, 75, -101.0769, 180
518.0438, 17, 424, 74, -101.7692, 180
518.0627, 19, 429, 76, -100.3846, 180
518.083, 21, 433, 83, -95.53846, 180
518.1038, 20, 435, 90, -90.69231, 180
518.1199, 19, 438, 98, -85.15385, 180
518.1404, 18, 439, 103, -81.69231, 180
518.1608, 18, 439, 115, -73.38461, 180
518.1812, 17, 438, 123, -67.84615, 180
518.2015, 17, 438, 126, -65.76923, 180
518.223, 16, 439, 132, -61.61538, 180
518.2407, 16, 439, 138, -57.46154, 180
518.2601, 23, 437, 144, -53.30769, 180
518.2794, 16, 438, 145, -52.61538, 180
518.3001, 13, 448, 150, -49.15385, 180
518.3203, 15, 438, 155, -45.69231, 180
518.3367, 16, 438, 162, -40.84615, 180
518.3579, 15, 437, 160, -42.23077, 180
518.3777, 15, 440, 169, -36, 180
518.3981, 15, 442, 167, -37.38462, 180
518.4185, 16, 440, 181, -27.69231, 180
518.4395, 16, 440, 182, -27, 180
518.4577, 16, 441, 186, -24.23077, 180
518.4773, 14, 449, 192, -20.07692, 180
518.4966, 16, 441, 193, -19.38461, 180
518.5176, 16, 442, 203, -12.46154, 180
518.5372, 16, 441, 206, -10.38461, 180
518.5588, 16, 441, 207, -9.692307, 180
518.5757, 15, 445, 200, -14.53846, 180
518.5952, 14, 445, 202, -13.15385, 180
518.6152, 16, 441, 211, -6.923077, 180
518.6364, 16, 441, 212, -6.230769, 180
518.6567, 16, 440, 214, -4.846154, 180
518.6782, 16, 441, 215, -4.153846, 180
518.6942, 16, 440, 218, -2.076923, 180
518.7136, 16, 441, 218, -2.076923, 180
518.7341, 16, 441, 219, -1.384615, 180
518.7545, 23, 440, 220, -0.6923077, 180
518.7761, 16, 440, 222, 0.6923077, 180
518.7955, 17, 439, 227, 4.153846, 180
518.812, 17, 439, 229, 5.538462, 180
518.8325, 16, 438, 230, 6.230769, 180
518.853, 17, 438, 230, 6.230769, 180
518.8735, 17, 438, 230, 6.230769, 180
518.895, 17, 438, 230, 6.230769, 180
518.9142, 17, 437, 229, 5.538462, 180
518.9308, 16, 437, 230, 6.230769, 180
518.9512, 17, 437, 229, 5.538462, 180
518.9716, 17, 437, 229, 5.538462, 180
518.9933, 17, 438, 227, 4.153846, 180
519.0131, 17, 437, 231, 6.923077, 180
519.0337, 17, 437, 230, 6.230769, 180
519.0497, 17, 437, 228, 4.846154, 180
519.0701, 16, 437, 230, 6.230769, 180
519.0911, 17, 437, 227, 4.153846, 180
519.1121, 17, 437, 228, 4.846154, 180
519.1315, 17, 436, 231, 6.923077, 180
519.1517, 17, 437, 231, 6.923077, 180
519.1682, 17, 436, 230, 6.230769, 180
519.1886, 17, 437, 230, 6.230769, 180
519.21, 17, 437, 229, 5.538462, 180
519.2296, 25, 429, 242, 14.53846, 180
519.2501, 17, 436, 231, 6.923077, 180
519.2706, 17, 436, 231, 6.923077, 180
519.2871, 17, 436, 231, 6.923077, 180
519.3079, 17, 436, 230, 6.230769, 180
519.3287, 18, 436, 230, 6.230769, 180
519.3483, 17, 436, 230, 6.230769, 180
519.3688, 17, 436, 231, 6.923077, 180
519.3853, 17, 436, 230, 6.230769, 180
519.4055, 17, 436, 228, 4.846154, 180
519.4269, 17, 435, 224, 2.076923, 180
519.4467, 25, 436, 227, 4.153846, 180
519.467, 17, 435, 224, 2.076923, 180
519.4943, 17, 438, 226, 3.461539, 180
519.5072, 17, 437, 226, 3.461539, 180
519.5259, 17, 437, 226, 3.461539, 180
519.5471, 17, 438, 226, 3.461539, 180
519.5654, 17, 438, 229, 5.538462, 180
519.5859, 16, 437, 228, 4.846154, 180
519.6064, 18, 438, 228, 4.846154, 180
519.6237, 17, 437, 226, 3.461539, 180
519.6439, 16, 442, 220, -0.6923077, 180
519.6639, 17, 439, 231, 6.923077, 180
519.6841, 17, 438, 233, 8.307693, 180
519.7046, 18, 438, 234, 9, 180
519.7261, 18, 438, 236, 10.38461, 180
519.7448, 17, 438, 237, 11.07692, 180
519.7625, 17, 438, 237, 11.07692, 180
519.783, 18, 438, 237, 11.07692, 180
519.8033, 18, 437, 238, 11.76923, 180
519.8237, 17, 437, 237, 11.07692, 180
519.8448, 18, 437, 238, 11.76923, 180
519.8625, 18, 437, 237, 11.07692, 180
519.8822, 17, 436, 238, 11.76923, 180
519.9036, 18, 436, 238, 11.76923, 180
519.9238, 16, 432, 239, 12.46154, 180
519.9459, 17, 433, 239, 12.46154, 180
519.965, 17, 429, 239, 12.46154, 180
519.9809, 17, 422, 235, 9.692307, 180
519.9999, 16, 413, 225, 2.769231, 180
520.0217, 12, 412, 188, -22.84615, 180
520.0418, 4, 443, 169, -36, 180
520.0613, 15, 453, 169, -36, 180
520.0825, 15, 454, 169, -36, 180
520.0981, 15, 457, 169, -36, 0
520.119, 17, 432, 236, 10.38461, 0
520.1387, 19, 424, 218, -2.076923, 0
520.1603, 16, 442, 198, -15.92308, 0
520.1813, 16, 439, 193, -19.38461, 0
520.2003, 16, 438, 187, -23.53846, 0
520.2184, 16, 437, 185, -24.92308, 0
520.2369, 15, 437, 191, -20.76923, 0
520.2581, 16, 432, 192, -20.07692, 0
520.2781, 16, 430, 192, -20.07692, 0
520.3009, 14, 437, 193, -19.38461, 0
520.3192, 16, 428, 196, -17.30769, 0
520.3369, 17, 426, 200, -14.53846, 0
520.3563, 16, 426, 201, -13.84615, 0
520.3776, 16, 425, 201, -13.84615, 0
520.3977, 16, 422, 199, -15.23077, 0
520.4174, 16, 424, 203, -12.46154, 0
520.4379, 16, 426, 194, -18.69231, 0
520.4547, 16, 426, 200, -14.53846, 0
520.476, 15, 427, 196, -17.30769, 0
520.4963, 16, 428, 192, -20.07692, 0
520.517, 16, 430, 181, -27.69231, 0
520.536, 16, 431, 183, -26.30769, 0
520.5568, 16, 432, 180, -28.38461, 0
520.5742, 16, 433, 175, -31.84615, 0
520.5941, 15, 435, 172, -33.92308, 0
520.6154, 16, 435, 165, -38.76923, 0
520.6343, 15, 436, 159, -42.92308, 0
520.6545, 15, 440, 154, -46.38462, 0
520.6716, 16, 436, 154, -46.38462, 0
520.6935, 15, 437, 148, -50.53846, 0
520.7123, 15, 437, 145, -52.61538, 0
520.7328, 15, 438, 138, -57.46154, 0
520.7532, 15, 437, 138, -57.46154, 0
520.7739, 15, 440, 130, -63, 0
520.7924, 15, 438, 127, -65.07692, 0
520.8124, 15, 438, 124, -67.15385, 0
520.8321, 15, 443, 120, -69.92308, 0
520.8525, 14, 443, 115, -73.38461, 0
520.873, 15, 440, 108, -78.23077, 0
520.8938, 13, 453, 105, -80.30769, 0
520.91, 14, 442, 99, -84.46154, 0
520.9302, 14, 440, 94, -87.92308, 0
520.9498, 15, 442, 92, -89.30769, 0
520.9703, 14, 439, 86, -93.46154, 0
520.991, 15, 439, 85, -94.15385, 0
521.0111, 14, 449, 85, -94.15385, 0
521.0276, 15, 436, 81, -96.92308, 0
521.0487, 15, 439, 84, -94.84615, 0
521.0688, 16, 434, 80, -97.61539, 0
521.0898, 21, 432, 80, -97.61539, 0
521.1102, 19, 431, 81, -96.92308, 0
521.1299, 14, 436, 83, -95.53846, 0
521.147, 16, 430, 80, -97.61539, 0
521.1667, 16, 428, 81, -96.92308, 0
521.1874, 15, 428, 81, -96.92308, 0
521.2087, 16, 428, 82, -96.23077, 0
521.2283, 16, 426, 85, -94.15385, 0
521.2498, 15, 426, 88, -92.07692, 0
521.2661, 17, 426, 89, -91.38461, 0
521.2857, 17, 427, 89, -91.38461, 0
521.3058, 16, 427, 87, -92.76923, 0
521.327, 16, 427, 88, -92.07692, 0
521.3474, 16, 426, 88, -92.07692, 0
521.364, 16, 425, 88, -92.07692, 0
521.3839, 16, 430, 87, -92.76923, 0
521.4049, 16, 425, 89, -91.38461, 0
521.426, 17, 425, 90, -90.69231, 0
521.4455, 17, 424, 90, -90.69231, 0
521.4666, 17, 424, 90, -90.69231, 0
521.4831, 17, 423, 90, -90.69231, 0
521.5032, 16, 422, 90, -90.69231, 0
521.5241, 17, 421, 90, -90.69231, 0
521.5441, 16, 421, 90, -90.69231, 0
521.5641, 16, 419, 90, -90.69231, 0
521.585, 16, 419, 90, -90.69231, 0
521.6013, 17, 418, 90, -90.69231, 0
521.6215, 16, 418, 91, -90, 0
521.643, 16, 418, 90, -90.69231, 0
521.6633, 17, 417, 90, -90.69231, 0
521.684, 17, 417, 91, -90, 0
521.7034, 17, 417, 91, -90, 0
521.7242, 17, 417, 90, -90.69231, 0
521.743, 16, 416, 90, -90.69231, 0
521.7632, 17, 417, 91, -90, 0
521.783, 17, 417, 91, -90, 0
521.8035, 17, 417, 91, -90, 0
521.8237, 16, 417, 91, -90, 0
521.842, 17, 417, 91, -90, 0
521.8615, 17, 418, 90, -90.69231, 0
521.881, 17, 418, 91, -90, 0
521.9009, 17, 418, 90, -90.69231, 0
521.9204, 17, 418, 91, -90, 0
521.9414, 17, 419, 91, -90, 0
521.9597, 17, 419, 91, -90, 0
521.9782, 17, 420, 90, -90.69231, 0
521.9982, 17, 420, 90, -90.69231, 0
522.0183, 17, 419, 90, -90.69231, 0
522.0388, 16, 419, 90, -90.69231, 0
522.0603, 16, 419, 90, -90.69231, 0
522.0773, 17, 419, 90, -90.69231, 0
522.0975, 16, 419, 90, -90.69231, 0
522.1187, 17, 419, 90, -90.69231, 0
522.1375, 17, 419, 90, -90.69231, 0
522.1589, 16, 419, 90, -90.69231, 0
522.1753, 16, 420, 90, -90.69231, 0
522.1948, 17, 419, 90, -90.69231, 0
522.2153, 16, 419, 90, -90.69231, 0
522.2356, 17, 419, 90, -90.69231, 0
522.2565, 16, 419, 91, -90, 0
522.2775, 17, 419, 90, -90.69231, 0
522.2938, 16, 419, 91, -90, 0
522.3135, 17, 419, 91, -90, 0
522.3356, 17, 419, 90, -90.69231, 0
522.3544, 16, 419, 90, -90.69231, 0
522.3758, 16, 419, 90, -90.69231, 0
522.3957, 16, 419, 90, -90.69231, 0
522.416, 17, 419, 90, -90.69231, 0
522.4327, 17, 418, 90, -90.69231, 0
522.4545, 16, 418, 90, -90.69231, 0
522.4765, 17, 417, 90, -90.69231, 0
522.4941, 17, 417, 90, -90.69231, 0
522.5147, 17, 417, 90, -90.69231, 0
522.5305, 17, 417, 90, -90.69231, 0
522.5518, 17, 417, 90, -90.69231, 0
522.5716, 16, 417, 91, -90, 0
522.5935, 17, 417, 90, -90.69231, 0
522.6129, 17, 416, 90, -90.69231, 0
522.6337, 16, 417, 90, -90.69231, 0
522.6496, 17, 417, 90, -90.69231, 0
522.67, 16, 417, 90, -90.69231, 0
522.6907, 17, 416, 91, -90, 0
522.7109, 17, 416, 90, -90.69231, 0
522.7315, 16, 416, 90, -90.69231, 0
522.7531, 17, 417, 90, -90.69231, 0
522.7686, 17, 417, 90, -90.69231, 0
522.7885, 17, 417, 90, -90.69231, 0
522.8099, 17, 418, 90, -90.69231, 0
522.8298, 16, 418, 90, -90.69231, 0
522.8502, 16, 419, 90, -90.69231, 0
522.8668, 16, 420, 90, -90.69231, 0
522.8876, 16, 420, 90, -90.69231, 0
522.908, 17, 420, 90, -90.69231, 0
522.9307, 17, 420, 90, -90.69231, 0
522.9501, 17, 420, 90, -90.69231, 0
522.9706, 17, 420, 90, -90.69231, 0
522.9883, 17, 420, 90, -90.69231, 0
523.0078, 16, 419, 90, -90.69231, 0
523.0297, 16, 419, 90, -90.69231, 0
523.0508, 17, 418, 90, -90.69231, 0
523.0685, 17, 419, 90, -90.69231, 0
523.0905, 17, 419, 90, -90.69231, 0
523.1061, 16, 419, 90, -90.69231, 0
523.1273, 17, 419, 90, -90.69231, 0
523.1466, 17, 420, 90, -90.69231, 0
523.1651, 17, 419, 90, -90.69231, 0
523.1881, 17, 419, 90, -90.69231, 0
523.2088, 17, 419, 90, -90.69231, 0
523.2276, 16, 419, 90, -90.69231, 0
523.246, 16, 419, 90, -90.69231, 0
523.266, 17, 419, 90, -90.69231, 0
523.2864, 17, 418, 90, -90.69231, 0
523.3053, 16, 419, 90, -90.69231, 0
523.3281, 17, 419, 90, -90.69231, 0
523.3438, 17, 419, 90, -90.69231, 0
523.3634, 17, 419, 90, -90.69231, 0
523.3847, 16, 419, 90, -90.69231, 0
523.4056, 17, 419, 90, -90.69231, 0
523.4252, 17, 419, 90, -90.69231, 0
523.445, 17, 419, 90, -90.69231, 0
523.462, 17, 419, 90, -90.69231, 0
523.4807, 17, 418, 90, -90.69231, 0
523.5031, 16, 417, 90, -90.69231, 0
523.5217, 17, 418, 90, -90.69231, 0
523.5435, 17, 417, 90, -90.69231, 0
523.56, 17, 417, 90, -90.69231, 0
523.5795, 17, 417, 90, -90.69231, 0
523.5999, 16, 417, 90, -90.69231, 0
523.6202, 17, 416, 90, -90.69231, 0
523.6409, 16, 417, 90, -90.69231, 0
523.6616, 16, 416, 90, -90.69231, 0
523.678, 17, 417, 90, -90.69231, 0
523.6993, 17, 418, 90, -90.69231, 0
523.7196, 16, 418, 90, -90.69231, 0
523.7399, 17, 419, 90, -90.69231, 0
523.7605, 17, 419, 90, -90.69231, 0
523.7798, 17, 419, 90, -90.69231, 0
523.7961, 17, 419, 90, -90.69231, 0
523.8166, 16, 419, 90, -90.69231, 0
523.8372, 17, 420, 90, -90.69231, 0
523.8578, 16, 420, 90, -90.69231, 0
523.8782, 16, 419, 90, -90.69231, 0
523.8985, 17, 419, 90, -90.69231, 0
523.9149, 17, 419, 90, -90.69231, 0
523.9355, 17, 419, 90, -90.69231, 0
523.956, 16, 419, 90, -90.69231, 0
523.9769, 17, 419, 90, -90.69231, 0
523.9968, 16, 420, 90, -90.69231, 0
524.0177, 16, 419, 90, -90.69231, 0
524.0336, 16, 420, 90, -90.69231, 0
524.0543, 16, 420, 90, -90.69231, 0
524.0755, 17, 419, 90, -90.69231, 0
524.0951, 17, 420, 90, -90.69231, 0
524.1177, 17, 421, 90, -90.69231, 0
524.1382, 17, 420, 90, -90.69231, 0
524.155, 17, 421, 90, -90.69231, 0
524.1764, 17, 421, 90, -90.69231, 0
524.1993, 16, 422, 90, -90.69231, 0
524.2159, 16, 422, 90, -90.69231, 0
524.2354, 16, 422, 90, -90.69231, 0
524.2515, 16, 421, 90, -90.69231, 0
524.2713, 17, 419, 90, -90.69231, 0
524.293, 16, 417, 90, -90.69231, 0
524.3127, 17, 416, 90, -90.69231, 0
524.3333, 16, 416, 90, -90.69231, 0
524.3542, 17, 416, 90, -90.69231, 0
524.3699, 17, 417, 90, -90.69231, 0
524.3906, 16, 418, 90, -90.69231, 0
524.4108, 16, 418, 90, -90.69231, 0
524.431, 17, 418, 90, -90.69231, 0
524.4516, 17, 419, 90, -90.69231, 0
524.4722, 16, 419, 90, -90.69231, 0
524.4888, 16, 419, 90, -90.69231, 0
524.5102, 16, 418, 90, -90.69231, 0
524.5293, 17, 419, 90, -90.69231, 0
524.5498, 16, 418, 90, -90.69231, 0
524.5701, 17, 418, 90, -90.69231, 0
524.591, 17, 418, 90, -90.69231, 0
524.6078, 16, 418, 90, -90.69231, 0
524.6275, 17, 418, 90, -90.69231, 0
524.6481, 17, 418, 90, -90.69231, 0
524.6686, 17, 417, 90, -90.69231, 0
524.6888, 17, 417, 90, -90.69231, 0
524.7104, 17, 416, 90, -90.69231, 0
524.7268, 16, 416, 90, -90.69231, 0
524.7463, 16, 418, 90, -90.69231, 0
524.7684, 16, 418, 90, -90.69231, 0
524.7889, 17, 418, 90, -90.69231, 0
524.8099, 16, 418, 90, -90.69231, 0
524.8305, 17, 417, 90, -90.69231, 0
524.8466, 16, 417, 90, -90.69231, 0
524.8669, 16, 417, 90, -90.69231, 0
524.8875, 17, 417, 90, -90.69231, 0
524.9082, 17, 416, 90, -90.69231, 0
524.929, 17, 417, 90, -90.69231, 0
524.9489, 16, 417, 90, -90.69231, 0
524.9657, 17, 418, 90, -90.69231, 0
524.9861, 16, 418, 90, -90.69231, 0
525.0067, 16, 417, 90, -90.69231, 0
525.0276, 16, 418, 90, -90.69231, 0
525.0471, 16, 418, 90, -90.69231, 0
525.0645, 16, 418, 90, -90.69231, 0
525.0838, 16, 418, 90, -90.69231, 0
525.1045, 17, 418, 90, -90.69231, 0
525.1268, 17, 418, 90, -90.69231, 0
525.147, 17, 419, 90, -90.69231, 0
525.1659, 17, 418, 90, -90.69231, 0
525.183, 16, 419, 90, -90.69231, 0
525.2037, 17, 419, 90, -90.69231, 0
525.2255, 17, 420, 90, -90.69231, 0
525.2451, 16, 419, 90, -90.69231, 0
525.2635, 16, 419, 90, -90.69231, 0
525.2833, 16, 418, 90, -90.69231, 0
525.2993, 17, 418, 90, -90.69231, 0
525.3198, 17, 418, 90, -90.69231, 0
525.3409, 17, 419, 90, -90.69231, 0
525.3608, 17, 417, 90, -90.69231, 0
525.3812, 17, 418, 90, -90.69231, 0
525.4016, 16, 418, 90, -90.69231, 0
525.4181, 16, 418, 90, -90.69231, 0
525.4383, 16, 419, 90, -90.69231, 0
525.4601, 17, 418, 90, -90.69231, 0
525.4795, 17, 418, 90, -90.69231, 0
525.5003, 17, 417, 90, -90.69231, 0
525.5204, 17, 418, 90, -90.69231, 0
525.5368, 16, 418, 90, -90.69231, 0
525.5574, 17, 418, 90, -90.69231, 0
525.5778, 17, 418, 90, -90.69231, 0
525.5983, 17, 418, 90, -90.69231, 0
525.6187, 17, 418, 90, -90.69231, 0
525.6392, 16, 418, 90, -90.69231, 0
525.6564, 16, 418, 90, -90.69231, 0
525.6769, 17, 418, 90, -90.69231, 0
525.6968, 17, 417, 90, -90.69231, 0
525.717, 17, 417, 90, -90.69231, 0
525.7396, 16, 418, 90, -90.69231, 0
525.7576, 17, 418, 90, -90.69231, 0
525.7776, 16, 418, 90, -90.69231, 0
525.7974, 16, 418, 90, -90.69231, 0
525.8174, 17, 418, 90, -90.69231, 0
525.8377, 17, 418, 90, -90.69231, 0
525.8591, 16, 418, 90, -90.69231, 0
525.8771, 17, 418, 90, -90.69231, 0
525.8962, 16, 419, 90, -90.69231, 0
525.9157, 16, 419, 90, -90.69231, 0
525.9364, 16, 418, 90, -90.69231, 0
525.957, 16, 418, 90, -90.69231, 0
525.978, 16, 418, 90, -90.69231, 0
525.996, 16, 417, 90, -90.69231, 0
526.0146, 17, 417, 90, -90.69231, 0
526.0349, 16, 418, 90, -90.69231, 0
526.0547, 17, 417, 90, -90.69231, 0
526.0745, 17, 416, 90, -90.69231, 0
526.0966, 17, 417, 90, -90.69231, 0
526.1129, 16, 418, 90, -90.69231, 0
526.1308, 17, 418, 90, -90.69231, 0
526.1516, 16, 417, 90, -90.69231, 0
526.1718, 16, 418, 90, -90.69231, 0
526.1934, 17, 417, 90, -90.69231, 0
526.2131, 16, 417, 90, -90.69231, 0
526.2292, 17, 417, 90, -90.69231, 0
526.2498, 17, 418, 90, -90.69231, 0
526.2695, 17, 418, 90, -90.69231, 0
526.2913, 16, 418, 90, -90.69231, 0
526.311, 16, 418, 90, -90.69231, 0
526.3313, 16, 418, 90, -90.69231, 0
526.3475, 16, 418, 90, -90.69231, 0
526.3682, 17, 418, 90, -90.69231, 0
526.3892, 17, 418, 90, -90.69231, 0
526.4104, 17, 418, 90, -90.69231, 0
526.4298, 17, 418, 90, -90.69231, 0
526.4463, 16, 418, 90, -90.69231, 0
526.4664, 17, 418, 90, -90.69231, 0
526.4872, 17, 418, 90, -90.69231, 0
526.5078, 17, 417, 90, -90.69231, 0
526.5283, 17, 417, 90, -90.69231, 0
526.5483, 16, 418, 90, -90.69231, 0
526.5651, 16, 418, 90, -90.69231, 0
526.5854, 17, 418, 90, -90.69231, 0
526.6064, 16, 417, 90, -90.69231, 0
526.6271, 17, 417, 90, -90.69231, 0
526.6467, 16, 418, 90, -90.69231, 0
526.6673, 16, 418, 90, -90.69231, 0
526.6837, 16, 418, 90, -90.69231, 0
526.7042, 17, 418, 90, -90.69231, 0
526.7253, 17, 418, 90, -90.69231, 0
526.7452, 17, 418, 90, -90.69231, 0
526.7656, 16, 418, 90, -90.69231, 0
526.7859, 16, 418, 90, -90.69231, 0
526.8026, 17, 418, 90, -90.69231, 0
526.8236, 16, 419, 90, -90.69231, 0
526.8438, 16, 418, 90, -90.69231, 0
526.864, 16, 417, 90, -90.69231, 0
526.8851, 17, 418, 90, -90.69231, 0
526.9045, 17, 418, 90, -90.69231, 0
526.9213, 16, 418, 90, -90.69231, 0
526.9426, 16, 418, 90, -90.69231, 0
526.9626, 16, 419, 90, -90.69231, 0
526.9829, 17, 418, 90, -90.69231, 0
527.0033, 16, 418, 90, -90.69231, 0
527.0241, 16, 419, 90, -90.69231, 0
527.0414, 16, 419, 90, -90.69231, 0
527.0609, 16, 419, 90, -90.69231, 0
527.0811, 17, 418, 90, -90.69231, 0
527.1014, 17, 418, 90, -90.69231, 0
527.1216, 17, 418, 90, -90.69231, 0
527.1386, 17, 418, 90, -90.69231, 0
527.1595, 17, 419, 90, -90.69231, 0
527.1793, 17, 418, 90, -90.69231, 0
527.2, 16, 418, 90, -90.69231, 0
527.22, 16, 417, 90, -90.69231, 0
527.2408, 16, 418, 90, -90.69231, 0
527.258, 17, 418, 90, -90.69231, 0
527.2778, 17, 418, 90, -90.69231, 0
527.2983, 16, 418, 90, -90.69231, 0
527.319, 17, 417, 90, -90.69231, 0
527.3389, 16, 417, 90, -90.69231, 0
527.3607, 16, 417, 90, -90.69231, 0
527.376, 17, 417, 90, -90.69231, 0
527.3962, 16, 418, 90, -90.69231, 0
527.4169, 17, 418, 90, -90.69231, 0
527.437, 17, 418, 90, -90.69231, 0
527.4586, 17, 418, 90, -90.69231, 0
527.4784, 17, 417, 90, -90.69231, 0
527.4954, 17, 417, 90, -90.69231, 0
527.5148, 17, 417, 90, -90.69231, 0
527.5354, 16, 417, 90, -90.69231, 0
527.5568, 16, 417, 90, -90.69231, 0
527.577, 16, 417, 90, -90.69231, 0
527.5968, 16, 417, 90, -90.69231, 0
527.6134, 17, 418, 90, -90.69231, 0
527.6342, 17, 418, 90, -90.69231, 0
527.655, 17, 418, 90, -90.69231, 0
527.676, 16, 418, 90, -90.69231, 0
527.6952, 17, 417, 90, -90.69231, 0
527.7156, 17, 417, 90, -90.69231, 0
527.7325, 17, 417, 89, -91.38461, 0
527.753, 17, 417, 90, -90.69231, 0
527.7741, 16, 417, 90, -90.69231, 0
527.7941, 17, 417, 90, -90.69231, 0
527.8142, 16, 417, 90, -90.69231, 0
527.8345, 17, 417, 90, -90.69231, 0
527.8508, 17, 417, 90, -90.69231, 0
527.8712, 17, 418, 90, -90.69231, 0
527.8927, 16, 418, 90, -90.69231, 0
527.9137, 17, 418, 90, -90.69231, 0
527.9333, 16, 418, 90, -90.69231, 0
527.9493, 16, 417, 90, -90.69231, 0
527.9698, 16, 418, 90, -90.69231, 0
527.9903, 17, 417, 90, -90.69231, 0
528.0109, 17, 418, 90, -90.69231, 0
528.0313, 17, 418, 90, -90.69231, 0
528.0519, 16, 418, 90, -90.69231, 0
528.0678, 16, 418, 90, -90.69231, 0
528.0884, 17, 418, 90, -90.69231, 0
528.1097, 16, 418, 90, -90.69231, 0
528.1294, 17, 418, 90, -90.69231, 0
528.1501, 16, 417, 90, -90.69231, 0
528.1703, 16, 418, 90, -90.69231, 0
528.1866, 17, 418, 90, -90.69231, 0
528.2076, 16, 418, 90, -90.69231, 0
528.2294, 17, 418, 90, -90.69231, 0
528.2484, 17, 418, 90, -90.69231, 0
528.2688, 16, 417, 90, -90.69231, 0
528.2893, 17, 417, 90, -90.69231, 0
528.3081, 16, 418, 90, -90.69231, 0
528.3269, 16, 418, 90, -90.69231, 0
528.3478, 17, 418, 90, -90.69231, 0
528.3672, 16, 418, 90, -90.69231, 0
528.388, 17, 418, 90, -90.69231, 0
528.4092, 16, 418, 90, -90.69231, 0
528.4261, 17, 418, 90, -90.69231, 0
528.4449, 16, 418, 90, -90.69231, 0
528.4655, 17, 418, 90, -90.69231, 0
528.4864, 17, 418, 90, -90.69231, 0
528.5063, 17, 417, 90, -90.69231, 0
528.5272, 17, 418, 90, -90.69231, 0
528.5441, 16, 418, 90, -90.69231, 0
528.5637, 16, 419, 90, -90.69231, 0
528.584, 16, 418, 90, -90.69231, 0
528.6044, 17, 418, 90, -90.69231, 0
528.6257, 16, 418, 90, -90.69231, 0
528.6423, 17, 418, 90, -90.69231, 0
528.662, 16, 418, 90, -90.69231, 0
528.6829, 16, 418, 90, -90.69231, 0
528.7032, 16, 419, 90, -90.69231, 0
528.7239, 17, 418, 90, -90.69231, 0
528.7441, 17, 417, 90, -90.69231, 0
528.7605, 16, 418, 90, -90.69231, 0
528.7808, 17, 418, 90, -90.69231, 0
528.8013, 17, 418, 90, -90.69231, 0
528.8214, 17, 418, 90, -90.69231, 0
528.8434, 17, 418, 90, -90.69231, 0
528.8632, 16, 418, 90, -90.69231, 0
528.8793, 17, 418, 90, -90.69231, 0
528.8992, 16, 418, 90, -90.69231, 0
528.9199, 17, 418, 90, -90.69231, 0
528.9409, 16, 419, 90, -90.69231, 0
528.9608, 17, 418, 90, -90.69231, 0
528.9814, 16, 417, 90, -90.69231, 0
528.9976, 17, 418, 90, -90.69231, 0
529.0181, 16, 418, 90, -90.69231, 0
529.0385, 16, 418, 90, -90.69231, 0
529.0599, 17, 418, 90, -90.69231, 0
529.0796, 17, 418, 90, -90.69231, 0
529.1001, 16, 418, 90, -90.69231, 0
529.1178, 17, 418, 90, -90.69231, 0
529.1393, 17, 418, 89, -91.38461, 0
529.1603, 17, 418, 90, -90.69231, 0
529.1803, 17, 418, 90, -90.69231, 0
529.202, 17, 418, 90, -90.69231, 0
529.2208, 16, 418, 90, -90.69231, 0
529.2387, 16, 418, 90, -90.69231, 0
529.2631, 17, 418, 90, -90.69231, 0
529.2776, 16, 418, 90, -90.69231, 0
529.2968, 17, 418, 90, -90.69231, 0
529.3173, 16, 417, 90, -90.69231, 0
529.3344, 16, 418, 90, -90.69231, 0
529.3543, 17, 418, 90, -90.69231, 0
529.38, 17, 418, 90, -90.69231, 0
529.3955, 17, 419, 90, -90.69231, 0
529.4154, 17, 418, 90, -90.69231, 0
529.4359, 16, 418, 90, -90.69231, 0
529.4522, 16, 418, 90, -90.69231, 0
529.4736, 16, 418, 90, -90.69231, 0
529.4938, 16, 418, 90, -90.69231, 0
529.5138, 16, 417, 90, -90.69231, 0
529.5342, 16, 417, 90, -90.69231, 0
529.5551, 16, 418, 90, -90.69231, 0
529.5717, 17, 418, 90, -90.69231, 0
529.5927, 16, 418, 90, -90.69231, 0
529.6123, 16, 418, 90, -90.69231, 0
529.6341, 16, 418, 90, -90.69231, 0
529.6533, 17, 418, 90, -90.69231, 0
529.6738, 17, 418, 90, -90.69231, 0
529.6917, 17, 418, 90, -90.69231, 0
529.7108, 16, 418, 90, -90.69231, 0
529.731, 17, 418, 90, -90.69231, 0
529.7514, 16, 418, 90, -90.69231, 0
529.7716, 17, 418, 90, -90.69231, 0
529.7937, 17, 418, 90, -90.69231, 0
529.8096, 17, 417, 90, -90.69231, 0
529.8292, 16, 417, 90, -90.69231, 0
529.8495, 17, 418, 90, -90.69231, 0
529.8721, 16, 417, 90, -90.69231, 0
529.8935, 17, 417, 90, -90.69231, 0
529.9143, 16, 418, 90, -90.69231, 0
529.9298, 16, 417, 90, -90.69231, 0
529.9498, 16, 418, 90, -90.69231, 0
529.9703, 16, 418, 90, -90.69231, 0
529.9916, 16, 418, 90, -90.69231, 0
530.0121, 16, 417, 90, -90.69231, 0
530.0279, 16, 418, 90, -90.69231, 0
530.0486, 16, 418, 90, -90.69231, 0
530.0689, 17, 418, 90, -90.69231, 0
530.089, 17, 418, 90, -90.69231, 0
530.11, 16, 418, 90, -90.69231, 0
530.1302, 17, 417, 90, -90.69231, 0
530.1469, 16, 416, 90, -90.69231, 0
530.167, 16, 416, 90, -90.69231, 0
530.1877, 16, 417, 90, -90.69231, 0
530.2085, 17, 418, 90, -90.69231, 0
530.2295, 17, 417, 90, -90.69231, 0
530.2492, 17, 418, 90, -90.69231, 0
530.2653, 17, 417, 90, -90.69231, 0
530.2859, 16, 417, 90, -90.69231, 0
530.3055, 17, 417, 90, -90.69231, 0
530.3259, 17, 417, 90, -90.69231, 0
530.3456, 16, 417, 90, -90.69231, 0
530.3657, 16, 418, 90, -90.69231, 0
530.3828, 17, 418, 90, -90.69231, 0
530.4026, 17, 418, 90, -90.69231, 0
530.4238, 17, 417, 90, -90.69231, 0
530.4449, 17, 417, 90, -90.69231, 0
530.4641, 17, 416, 90, -90.69231, 0
530.4843, 16, 416, 90, -90.69231, 0
530.5007, 16, 416, 90, -90.69231, 0
530.5215, 16, 416, 90, -90.69231, 0
530.543, 17, 416, 90, -90.69231, 0
530.5629, 16, 416, 90, -90.69231, 0
530.5834, 17, 416, 90, -90.69231, 0
530.6033, 17, 417, 90, -90.69231, 0
530.6204, 17, 416, 90, -90.69231, 0
530.6412, 16, 416, 90, -90.69231, 0
530.6615, 17, 417, 90, -90.69231, 0
530.6818, 16, 417, 90, -90.69231, 0
530.7022, 17, 417, 90, -90.69231, 0
530.7187, 17, 417, 90, -90.69231, 0
530.7388, 17, 417, 90, -90.69231, 0
530.7603, 17, 417, 90, -90.69231, 0
530.78, 17, 416, 90, -90.69231, 0
530.8006, 16, 416, 90, -90.69231, 0
530.8209, 17, 416, 90, -90.69231, 0
530.8374, 17, 417, 90, -90.69231, 0
530.8578, 16, 416, 90, -90.69231, 0
530.8785, 16, 417, 90, -90.69231, 0
530.8987, 17, 416, 90, -90.69231, 0
530.9191, 16, 416, 90, -90.69231, 0
530.94, 16, 416, 90, -90.69231, 0
530.9567, 16, 418, 90, -90.69231, 0
530.9775, 17, 418, 90, -90.69231, 0
530.9972, 16, 417, 89, -91.38461, 0
531.0184, 16, 417, 89, -91.38461, 0
531.0378, 17, 417, 89, -91.38461, 0
531.0591, 17, 416, 90, -90.69231, 0
531.0753, 16, 416, 90, -90.69231, 0
531.0953, 16, 416, 90, -90.69231, 0
531.116, 16, 416, 90, -90.69231, 0
531.1389, 16, 416, 90, -90.69231, 0
531.1586, 17, 417, 90, -90.69231, 0
531.1793, 17, 416, 90, -90.69231, 0
531.195, 17, 417, 90, -90.69231, 0
531.2153, 16, 417, 90, -90.69231, 0
531.2366, 16, 416, 90, -90.69231, 0
531.2578, 16, 416, 90, -90.69231, 0
531.2782, 16, 416, 90, -90.69231, 0
531.298, 16, 416, 90, -90.69231, 0
531.315, 17, 417, 90, -90.69231, 0
531.3341, 17, 417, 89, -91.38461, 0
531.3532, 17, 416, 90, -90.69231, 0
531.3746, 17, 416, 90, -90.69231, 0
531.3951, 17, 417, 90, -90.69231, 0
531.4104, 16, 416, 90, -90.69231, 0
531.43, 17, 417, 90, -90.69231, 0
531.4513, 17, 417, 90, -90.69231, 0
531.4714, 17, 417, 90, -90.69231, 0
531.4935, 16, 417, 90, -90.69231, 0
531.5128, 17, 417, 90, -90.69231, 0
531.5289, 17, 417, 90, -90.69231, 0
531.5491, 17, 416, 90, -90.69231, 0
531.5698, 16, 417, 90, -90.69231, 0
531.5911, 17, 417, 90, -90.69231, 0
531.6113, 16, 417, 90, -90.69231, 0
531.6315, 17, 417, 90, -90.69231, 0
531.6477, 16, 417, 90, -90.69231, 0
531.668, 16, 418, 90, -90.69231, 0
531.6892, 16, 417, 90, -90.69231, 0
531.7099, 17, 417, 90, -90.69231, 0
531.7295, 16, 417, 90, -90.69231, 0
531.7501, 17, 417, 90, -90.69231, 0
531.7667, 16, 417, 90, -90.69231, 0
531.7869, 16, 417, 89, -91.38461, 0
531.8075, 17, 417, 90, -90.69231, 0
531.8289, 17, 417, 90, -90.69231, 0
531.8484, 16, 417, 90, -90.69231, 0
531.8686, 17, 417, 90, -90.69231, 0
531.8854, 16, 417, 90, -90.69231, 0
531.9061, 16, 417, 90, -90.69231, 0
531.9268, 16, 417, 90, -90.69231, 0
531.9468, 16, 417, 90, -90.69231, 0
531.967, 17, 418, 89, -91.38461, 0
531.9874, 17, 417, 89, -91.38461, 0
532.0038, 16, 417, 90, -90.69231, 0
532.0254, 16, 418, 89, -91.38461, 0
532.0449, 16, 417, 90, -90.69231, 0
532.0685, 17, 417, 89, -91.38461, 0
532.0878, 17, 416, 90, -90.69231, 0
532.1088, 16, 416, 90, -90.69231, 0
532.1272, 17, 417, 90, -90.69231, 0
532.1462, 16, 417, 90, -90.69231, 0
532.1658, 17, 417, 89, -91.38461, 0
532.1863, 16, 417, 90, -90.69231, 0
532.2091, 17, 416, 90, -90.69231, 0
532.2257, 16, 416, 90, -90.69231, 0
532.2451, 17, 416, 90, -90.69231, 0
532.2646, 17, 416, 90, -90.69231, 0
532.2838, 17, 416, 90, -90.69231, 0
532.3039, 17, 416, 90, -90.69231, 0
532.3245, 16, 417, 90, -90.69231, 0
532.3416, 17, 418, 89, -91.38461, 0
532.3617, 17, 418, 90, -90.69231, 0
532.3809, 16, 417, 90, -90.69231, 0
532.4012, 17, 416, 90, -90.69231, 0
532.4218, 16, 416, 90, -90.69231, 0
532.4437, 17, 416, 90, -90.69231, 0
532.46, 17, 416, 90, -90.69231, 0
532.4792, 17, 416, 90, -90.69231, 0
532.5001, 17, 416, 89, -91.38461, 0
532.52, 17, 416, 90, -90.69231, 0
532.5409, 16, 417, 90, -90.69231, 0
532.561, 17, 416, 90, -90.69231, 0
532.5776, 16, 416, 90, -90.69231, 0
532.5982, 17, 416, 89, -91.38461, 0
532.6189, 16, 416, 90, -90.69231, 0
532.6408, 17, 416, 90, -90.69231, 0
532.6606, 16, 416, 90, -90.69231, 0
532.6802, 16, 416, 90, -90.69231, 0
532.6968, 17, 417, 90, -90.69231, 0
532.717, 17, 417, 89, -91.38461, 0
532.7378, 17, 418, 90, -90.69231, 0
532.7581, 17, 418, 90, -90.69231, 0
532.7789, 16, 418, 90, -90.69231, 0
532.7994, 17, 417, 90, -90.69231, 0
532.8159, 16, 417, 90, -90.69231, 0
532.836, 16, 417, 90, -90.69231, 0
532.8564, 17, 417, 90, -90.69231, 0
532.8781, 17, 416, 90, -90.69231, 0
532.8976, 16, 416, 90, -90.69231, 0
532.9139, 16, 416, 90, -90.69231, 0
532.934, 17, 416, 90, -90.69231, 0
532.9551, 16, 416, 90, -90.69231, 0
532.9758, 17, 415, 90, -90.69231, 0
532.9949, 17, 415, 90, -90.69231, 0
533.0155, 16, 416, 90, -90.69231, 0
533.0321, 16, 416, 90, -90.69231, 0
533.0527, 16, 416, 90, -90.69231, 0
533.0743, 17, 416, 90, -90.69231, 0
533.0941, 17, 416, 90, -90.69231, 0
533.1139, 16, 416, 90, -90.69231, 0
533.1343, 17, 416, 90, -90.69231, 0
533.1506, 17, 417, 90, -90.69231, 0
533.1713, 16, 417, 90, -90.69231, 0
533.1925, 17, 417, 90, -90.69231, 0
533.2125, 17, 417, 90, -90.69231, 0
533.233, 17, 416, 90, -90.69231, 0
533.2535, 17, 416, 90, -90.69231, 0
533.2697, 16, 417, 90, -90.69231, 0
533.2902, 16, 417, 90, -90.69231, 0
533.3109, 16, 416, 90, -90.69231, 0
533.331, 16, 416, 90, -90.69231, 0
533.3513, 17, 416, 90, -90.69231, 0
533.3721, 17, 416, 90, -90.69231, 0
533.3888, 16, 416, 90, -90.69231, 0
533.4097, 17, 416, 90, -90.69231, 0
533.4292, 16, 415, 90, -90.69231, 0
533.45, 16, 415, 90, -90.69231, 0
533.47, 17, 416, 90, -90.69231, 0
533.4938, 17, 416, 90, -90.69231, 0
533.5089, 17, 416, 90, -90.69231, 0
533.5282, 16, 417, 90, -90.69231, 0
533.548, 16, 417, 90, -90.69231, 0
533.5684, 16, 416, 90, -90.69231, 0
533.5887, 17, 416, 90, -90.69231, 0
533.6061, 17, 416, 90, -90.69231, 0
533.6266, 16, 416, 90, -90.69231, 0
533.6464, 16, 416, 90, -90.69231, 0
533.6668, 17, 417, 90, -90.69231, 0
533.6872, 16, 417, 90, -90.69231, 0
533.7101, 16, 417, 90, -90.69231, 0
533.7273, 17, 417, 90, -90.69231, 0
533.7481, 17, 417, 90, -90.69231, 0
533.7667, 17, 417, 90, -90.69231, 0
533.7861, 17, 416, 90, -90.69231, 0
533.8067, 16, 416, 90, -90.69231, 0
533.8279, 16, 416, 90, -90.69231, 0
533.8447, 17, 415, 89, -91.38461, 0
533.8642, 17, 415, 90, -90.69231, 0
533.8845, 17, 416, 90, -90.69231, 0
533.9048, 17, 416, 90, -90.69231, 0
533.9286, 17, 417, 90, -90.69231, 0
533.9459, 16, 417, 90, -90.69231, 0
533.9631, 16, 417, 90, -90.69231, 0
533.9832, 16, 416, 90, -90.69231, 0
534.0036, 17, 416, 90, -90.69231, 0
534.0245, 16, 416, 90, -90.69231, 0
534.045, 17, 415, 90, -90.69231, 0
534.0646, 16, 415, 90, -90.69231, 0
534.0809, 16, 415, 90, -90.69231, 0
534.1015, 16, 415, 90, -90.69231, 0
534.1219, 17, 416, 90, -90.69231, 0
534.1436, 17, 416, 90, -90.69231, 0
534.1636, 17, 416, 90, -90.69231, 0
534.1843, 16, 417, 90, -90.69231, 0
534.1998, 17, 417, 90, -90.69231, 0
534.2203, 17, 416, 90, -90.69231, 0
534.2412, 17, 417, 90, -90.69231, 0
534.2617, 17, 416, 90, -90.69231, 0
534.2819, 17, 416, 90, -90.69231, 0
534.2993, 16, 416, 90, -90.69231, 0
534.3191, 16, 415, 90, -90.69231, 0
534.3399, 16, 416, 89, -91.38461, 0
534.3604, 17, 416, 90, -90.69231, 0
534.3801, 17, 415, 90, -90.69231, 0
534.4021, 17, 415, 90, -90.69231, 0
534.4187, 16, 417, 90, -90.69231, 0
534.4394, 16, 416, 90, -90.69231, 0
534.4596, 17, 417, 90, -90.69231, 0
534.4805, 17, 416, 90, -90.69231, 0
534.5005, 17, 416, 90, -90.69231, 0
534.5208, 17, 416, 90, -90.69231, 0
534.5386, 17, 416, 90, -90.69231, 0
534.5559, 17, 416, 90, -90.69231, 0
534.5776, 17, 416, 90, -90.69231, 0
534.5963, 17, 416, 90, -90.69231, 0
534.6174, 17, 416, 90, -90.69231, 0
534.6375, 17, 417, 90, -90.69231, 0
534.6537, 17, 416, 90, -90.69231, 0
534.6755, 16, 416, 90, -90.69231, 0
534.6949, 17, 417, 90, -90.69231, 0
534.7153, 16, 416, 90, -90.69231, 0
534.7357, 17, 416, 90, -90.69231, 0
534.7564, 17, 416, 90, -90.69231, 0
534.7739, 17, 416, 90, -90.69231, 0
534.7939, 16, 416, 90, -90.69231, 0
534.8135, 16, 416, 90, -90.69231, 0
534.8342, 16, 416, 90, -90.69231, 0
534.8545, 16, 416, 90, -90.69231, 0
534.8758, 17, 416, 90, -90.69231, 0
534.8924, 17, 416, 90, -90.69231, 0
534.912, 17, 416, 90, -90.69231, 0
534.9327, 16, 416, 90, -90.69231, 0
534.9532, 16, 416, 90, -90.69231, 0
534.974, 16, 416, 90, -90.69231, 0
534.9942, 17, 416, 90, -90.69231, 0
535.0106, 17, 416, 90, -90.69231, 0
535.0333, 17, 417, 90, -90.69231, 0
535.0543, 16, 417, 90, -90.69231, 0
535.0754, 17, 416, 89, -91.38461, 0
535.0938, 16, 416, 90, -90.69231, 0
535.1106, 17, 416, 90, -90.69231, 0
535.1295, 17, 416, 90, -90.69231, 0
535.1501, 17, 417, 90, -90.69231, 0
535.1707, 17, 416, 90, -90.69231, 0
535.1912, 16, 416, 90, -90.69231, 0
535.2119, 17, 416, 90, -90.69231, 0
535.2278, 16, 416, 90, -90.69231, 0
535.2482, 17, 416, 90, -90.69231, 0
535.269, 16, 415, 90, -90.69231, 0
535.2891, 16, 416, 90, -90.69231, 0
535.31, 16, 416, 90, -90.69231, 0
535.3295, 17, 415, 90, -90.69231, 0
535.3459, 16, 416, 90, -90.69231, 0
535.3666, 17, 416, 90, -90.69231, 0
535.3869, 16, 416, 89, -91.38461, 0
535.4078, 17, 416, 89, -91.38461, 0
535.4281, 16, 415, 90, -90.69231, 0
535.4485, 16, 416, 90, -90.69231, 0
535.4648, 16, 416, 90, -90.69231, 0
535.4851, 16, 416, 90, -90.69231, 0
535.5059, 16, 415, 90, -90.69231, 0
535.5269, 17, 416, 90, -90.69231, 0
535.5469, 17, 416, 90, -90.69231, 0
535.5671, 16, 416, 90, -90.69231, 0
535.5837, 16, 416, 90, -90.69231, 0
535.6043, 17, 416, 90, -90.69231, 0
535.6257, 17, 416, 90, -90.69231, 0
535.645, 17, 415, 90, -90.69231, 0
535.6653, 16, 416, 90, -90.69231, 0
535.687, 17, 416, 90, -90.69231, 0
535.7049, 17, 415, 90, -90.69231, 0
535.7266, 17, 415, 90, -90.69231, 0
535.7466, 17, 416, 90, -90.69231, 0
535.766, 17, 416, 90, -90.69231, 0
535.7861, 17, 415, 90, -90.69231, 0
535.804, 17, 416, 90, -90.69231, 0
535.8239, 16, 416, 90, -90.69231, 0
535.8447, 16, 416, 90, -90.69231, 0
535.8648, 17, 415, 90, -90.69231, 0
535.8845, 16, 416, 90, -90.69231, 0
535.905, 17, 416, 90, -90.69231, 0
535.9226, 16, 416, 90, -90.69231, 0
535.9426, 16, 416, 90, -90.69231, 0
535.9644, 16, 415, 90, -90.69231, 0
535.9841, 17, 416, 90, -90.69231, 0
536.004, 17, 415, 90, -90.69231, 0
536.025, 17, 416, 90, -90.69231, 0
536.0425, 16, 416, 90, -90.69231, 0
536.0618, 16, 416, 90, -90.69231, 0
536.0814, 16, 416, 89, -91.38461, 0
536.1024, 17, 415, 90, -90.69231, 0
536.1223, 17, 415, 90, -90.69231, 0
536.1431, 17, 415, 90, -90.69231, 0
536.1602, 17, 415, 90, -90.69231, 0
536.1796, 16, 415, 90, -90.69231, 0
536.2, 16, 416, 90, -90.69231, 0
536.2205, 16, 415, 90, -90.69231, 0
536.2395, 16, 415, 90, -90.69231, 0
536.261, 17, 415, 90, -90.69231, 0
536.2765, 17, 415, 90, -90.69231, 0
536.2968, 17, 415, 90, -90.69231, 0
536.3171, 16, 415, 90, -90.69231, 0
536.3376, 16, 415, 90, -90.69231, 0
536.3585, 16, 415, 90, -90.69231, 0
536.3787, 17, 415, 90, -90.69231, 0
536.3951, 16, 415, 90, -90.69231, 0
536.4153, 17, 415, 90, -90.69231, 0
536.436, 17, 415, 90, -90.69231, 0
536.4569, 17, 415, 90, -90.69231, 0
536.4775, 17, 415, 90, -90.69231, 0
536.4974, 17, 415, 90, -90.69231, 0
536.514, 16, 415, 90, -90.69231, 0
536.5343, 16, 415, 90, -90.69231, 0
536.5549, 16, 415, 90, -90.69231, 0
536.5793, 17, 414, 90, -90.69231, 0
536.5956, 16, 414, 90, -90.69231, 0
536.6127, 17, 415, 89, -91.38461, 0
536.633, 16, 415, 90, -90.69231, 0
536.6534, 17, 415, 90, -90.69231, 0
536.6737, 16, 415, 90, -90.69231, 0
536.6947, 16, 415, 90, -90.69231, 0
536.7155, 17, 415, 90, -90.69231, 0
536.7314, 17, 415, 90, -90.69231, 0
536.7516, 17, 415, 90, -90.69231, 0
536.7719, 16, 415, 90, -90.69231, 0
536.7939, 16, 415, 90, -90.69231, 0
536.8138, 16, 416, 90, -90.69231, 0
536.834, 16, 415, 90, -90.69231, 0
536.8498, 17, 415, 90, -90.69231, 0
536.8703, 16, 415, 90, -90.69231, 0
536.8912, 17, 416, 90, -90.69231, 0
536.9114, 16, 416, 90, -90.69231, 0
536.9316, 17, 415, 90, -90.69231, 0
536.9521, 16, 415, 90, -90.69231, 0
536.9685, 17, 415, 90, -90.69231, 0
536.9888, 17, 415, 90, -90.69231, 0
537.0103, 16, 415, 90, -90.69231, 0
537.0299, 16, 415, 90, -90.69231, 0
537.0504, 16, 415, 90, -90.69231, 0
537.0708, 16, 415, 90, -90.69231, 0
537.0873, 16, 415, 89, -91.38461, 0
537.1081, 17, 415, 90, -90.69231, 0
537.1282, 17, 416, 90, -90.69231, 0
537.1495, 17, 415, 89, -91.38461, 0
537.1693, 17, 415, 90, -90.69231, 0
537.1899, 17, 415, 90, -90.69231, 0
537.2065, 16, 415, 90, -90.69231, 0
537.2274, 16, 415, 90, -90.69231, 0
537.2469, 17, 416, 90, -90.69231, 0
537.2687, 17, 416, 90, -90.69231, 0
537.2878, 17, 416, 90, -90.69231, 0
537.3045, 16, 416, 90, -90.69231, 0
537.3256, 16, 416, 90, -90.69231, 0
537.3448, 17, 416, 89, -91.38461, 0
537.3653, 17, 415, 90, -90.69231, 0
537.3858, 17, 414, 90, -90.69231, 0
537.4064, 17, 414, 90, -90.69231, 0
537.424, 17, 414, 90, -90.69231, 0
537.4438, 16, 414, 90, -90.69231, 0
537.4634, 16, 414, 89, -91.38461, 0
537.4844, 16, 415, 90, -90.69231, 0
537.5044, 16, 415, 90, -90.69231, 0
537.5258, 16, 415, 90, -90.69231, 0
537.5423, 17, 416, 90, -90.69231, 0
537.562, 16, 416, 90, -90.69231, 0
537.5842, 17, 417, 89, -91.38461, 0
537.6033, 17, 416, 90, -90.69231, 0
537.6234, 17, 416, 90, -90.69231, 0
537.6444, 17, 415, 90, -90.69231, 0
537.6607, 17, 415, 90, -90.69231, 0
537.6808, 16, 415, 90, -90.69231, 0
537.7011, 16, 415, 90, -90.69231, 0
537.7213, 16, 415, 90, -90.69231, 0
537.7432, 16, 415, 90, -90.69231, 0
537.763, 17, 415, 90, -90.69231, 0
537.7789, 17, 416, 90, -90.69231, 0
537.7992, 17, 416, 90, -90.69231, 0
537.8198, 17, 415, 90, -90.69231, 0
537.8407, 16, 415, 90, -90.69231, 0
537.8609, 17, 415, 90, -90.69231, 0
537.8812, 17, 415, 90, -90.69231, 0
537.8978, 17, 415, 90, -90.69231, 0
537.9181, 16, 416, 90, -90.69231, 0
537.9409, 16, 416, 90, -90.69231, 0
537.9619, 17, 416, 90, -90.69231, 0
537.9818, 16, 416, 90, -90.69231, 0
537.9984, 16, 416, 90, -90.69231, 0
538.0225, 16, 416, 90, -90.69231, 0
538.0399, 17, 415, 90, -90.69231, 0
538.0602, 17, 415, 90, -90.69231, 0
538.0803, 17, 416, 90, -90.69231, 0
538.1004, 16, 416, 90, -90.69231, 0
538.1177, 17, 416, 90, -90.69231, 0
538.1379, 16, 415, 90, -90.69231, 0
538.158, 16, 416, 90, -90.69231, 0
538.1796, 16, 416, 90, -90.69231, 0
538.1991, 16, 416, 90, -90.69231, 0
538.2191, 16, 416, 90, -90.69231, 0
538.2363, 17, 416, 90, -90.69231, 0
538.2562, 17, 416, 89, -91.38461, 0
538.2776, 17, 416, 89, -91.38461, 0
538.2975, 17, 416, 90, -90.69231, 0
538.3179, 17, 416, 90, -90.69231, 0
538.3364, 16, 416, 90, -90.69231, 0
538.3531, 16, 416, 90, -90.69231, 0
538.3736, 17, 416, 90, -90.69231, 0
538.3948, 16, 416, 90, -90.69231, 0
538.4142, 17, 415, 90, -90.69231, 0
538.4349, 16, 416, 90, -90.69231, 0
538.455, 17, 416, 90, -90.69231, 0
538.4719, 16, 416, 89, -91.38461, 0
538.493, 17, 416, 89, -91.38461, 0
538.5129, 17, 416, 90, -90.69231, 0
538.5334, 17, 416, 90, -90.69231, 0
538.5537, 17, 416, 90, -90.69231, 0
538.574, 17, 416, 90, -90.69231, 0
538.5928, 16, 416, 90, -90.69231, 0
538.6108, 16, 417, 90, -90.69231, 0
538.631, 16, 417, 90, -90.69231, 0
538.6519, 16, 416, 90, -90.69231, 0
538.6716, 17, 416, 90, -90.69231, 0
538.6931, 17, 416, 90, -90.69231, 0
538.7094, 17, 416, 89, -91.38461, 0
538.7291, 16, 417, 90, -90.69231, 0
538.7498, 16, 416, 90, -90.69231, 0
538.77, 17, 417, 90, -90.69231, 0
538.7909, 16, 416, 90, -90.69231, 0
538.8078, 17, 416, 89, -91.38461, 0
538.8275, 17, 416, 90, -90.69231, 0
538.8482, 17, 417, 90, -90.69231, 0
538.8683, 16, 416, 90, -90.69231, 0
538.8886, 17, 416, 90, -90.69231, 0
538.9102, 16, 415, 90, -90.69231, 0
538.9266, 16, 416, 90, -90.69231, 0
538.9462, 16, 416, 90, -90.69231, 0
538.9667, 16, 415, 90, -90.69231, 0
538.9871, 17, 416, 90, -90.69231, 0
539.0076, 16, 415, 90, -90.69231, 0
539.0283, 17, 416, 89, -91.38461, 0
539.0449, 16, 416, 89, -91.38461, 0
539.0648, 17, 415, 89, -91.38461, 0
539.0875, 16, 415, 90, -90.69231, 0
539.1083, 16, 415, 89, -91.38461, 0
539.1292, 16, 416, 90, -90.69231, 0
539.1489, 17, 416, 90, -90.69231, 0
539.1655, 17, 416, 90, -90.69231, 0
539.1858, 16, 416, 90, -90.69231, 0
539.2065, 17, 416, 90, -90.69231, 0
539.2275, 16, 416, 89, -91.38461, 0
539.2475, 17, 416, 90, -90.69231, 0
539.2687, 16, 416, 90, -90.69231, 0
539.2847, 16, 416, 90, -90.69231, 0
539.3062, 17, 416, 90, -90.69231, 0
539.324, 17, 416, 89, -91.38461, 0
539.3442, 17, 416, 90, -90.69231, 0
539.3641, 16, 416, 90, -90.69231, 0
539.3844, 16, 416, 90, -90.69231, 0
539.4007, 17, 416, 89, -91.38461, 0
539.4211, 16, 417, 90, -90.69231, 0
539.4427, 16, 416, 89, -91.38461, 0
539.4626, 16, 416, 90, -90.69231, 0
539.4831, 17, 416, 90, -90.69231, 0
539.499, 16, 416, 90, -90.69231, 0
539.5195, 16, 416, 90, -90.69231, 0
539.5404, 16, 417, 90, -90.69231, 0
539.5609, 17, 416, 89, -91.38461, 0
539.581, 17, 416, 90, -90.69231, 0
539.6019, 17, 416, 90, -90.69231, 0
539.6178, 16, 416, 89, -91.38461, 0
539.6382, 16, 416, 89, -91.38461, 0
539.6599, 16, 416, 90, -90.69231, 0
539.6843, 17, 416, 90, -90.69231, 0
539.7, 17, 416, 90, -90.69231, 0
539.7202, 16, 415, 90, -90.69231, 0
539.7365, 16, 416, 90, -90.69231, 0
539.7576, 16, 416, 90, -90.69231, 0
539.7776, 16, 416, 89, -91.38461, 0
539.798, 17, 416, 90, -90.69231, 0
539.8187, 16, 416, 89, -91.38461, 0
539.8389, 17, 416, 90, -90.69231, 0
539.8562, 17, 416, 90, -90.69231, 0
539.8767, 17, 416, 90, -90.69231, 0
539.8965, 16, 416, 90, -90.69231, 0
539.9167, 17, 416, 90, -90.69231, 0
539.9375, 16, 415, 90, -90.69231, 0
539.9586, 16, 416, 90, -90.69231, 0
539.9753, 16, 416, 90, -90.69231, 0
539.9946, 16, 416, 90, -90.69231, 0
540.0153, 16, 416, 90, -90.69231, 0
540.0355, 16, 416, 90, -90.69231, 0
540.056, 17, 415, 90, -90.69231, 0
540.0772, 16, 416, 90, -90.69231, 0
540.0942, 17, 416, 89, -91.38461, 0
540.1138, 17, 416, 90, -90.69231, 0
540.1349, 16, 416, 90, -90.69231, 0
540.1542, 17, 416, 90, -90.69231, 0
540.1758, 17, 416, 89, -91.38461, 0
540.1923, 17, 416, 89, -91.38461, 0
540.212, 17, 415, 89, -91.38461, 0
540.2324, 17, 416, 89, -91.38461, 0
540.2531, 17, 416, 89, -91.38461, 0
540.2739, 16, 416, 90, -90.69231, 0
540.2944, 16, 416, 90, -90.69231, 0
540.3109, 16, 416, 90, -90.69231, 0
540.3304, 17, 416, 90, -90.69231, 0
540.3514, 16, 416, 90, -90.69231, 0
540.3713, 17, 417, 90, -90.69231, 0
540.3931, 17, 416, 90, -90.69231, 0
540.4126, 16, 416, 90, -90.69231, 0
540.429, 17, 416, 89, -91.38461, 0
540.4492, 17, 417, 90, -90.69231, 0
540.4698, 17, 417, 89, -91.38461, 0
540.4905, 17, 416, 90, -90.69231, 0
540.511, 16, 416, 90, -90.69231, 0
540.5312, 16, 416, 90, -90.69231, 0
540.5476, 16, 416, 89, -91.38461, 0
540.568, 17, 417, 89, -91.38461, 0
540.5884, 17, 416, 90, -90.69231, 0
540.61, 17, 416, 89, -91.38461, 0
540.6295, 17, 417, 90, -90.69231, 0
540.6501, 16, 416, 90, -90.69231, 0
540.6669, 16, 417, 90, -90.69231, 0
540.6868, 16, 417, 90, -90.69231, 0
540.7075, 17, 417, 90, -90.69231, 0
540.7277, 16, 416, 89, -91.38461, 0
540.7495, 17, 416, 90, -90.69231, 0
540.7687, 16, 416, 90, -90.69231, 0
540.7856, 16, 416, 90, -90.69231, 0
540.8055, 16, 417, 89, -91.38461, 0
540.8268, 16, 416, 90, -90.69231, 0
540.848, 17, 416, 90, -90.69231, 0
540.8691, 17, 416, 90, -90.69231, 0
540.8857, 16, 417, 89, -91.38461, 0
540.9063, 17, 417, 89, -91.38461, 0
540.9324, 17, 417, 90, -90.69231, 0
540.9469, 17, 416, 89, -91.38461, 0
540.9675, 16, 416, 90, -90.69231, 0
540.988, 17, 416, 90, -90.69231, 0
541.0053, 17, 416, 89, -91.38461, 0
541.0258, 16, 416, 90, -90.69231, 0
541.0466, 16, 417, 90, -90.69231, 0
541.0657, 16, 417, 90, -90.69231, 0
541.0861, 17, 417, 90, -90.69231, 0
541.1069, 16, 417, 90, -90.69231, 0
541.1245, 17, 417, 90, -90.69231, 0
541.1447, 17, 417, 90, -90.69231, 0
541.1643, 16, 417, 89, -91.38461, 0
541.1846, 17, 417, 89, -91.38461, 0
541.2047, 16, 417, 89, -91.38461, 0
541.2264, 16, 416, 90, -90.69231, 0
541.2437, 16, 417, 89, -91.38461, 0
541.2638, 16, 417, 89, -91.38461, 0
541.2836, 17, 417, 90, -90.69231, 0
541.3015, 16, 417, 90, -90.69231, 0
541.3215, 16, 416, 89, -91.38461, 0
541.3437, 17, 417, 90, -90.69231, 0
541.3586, 17, 417, 89, -91.38461, 0
541.3794, 17, 417, 90, -90.69231, 0
541.3995, 16, 417, 90, -90.69231, 0
541.4198, 16, 417, 90, -90.69231, 0
541.441, 17, 417, 90, -90.69231, 0
541.4609, 16, 417, 90, -90.69231, 0
541.4776, 16, 417, 90, -90.69231, 0
541.4979, 17, 417, 89, -91.38461, 0
541.5183, 17, 417, 90, -90.69231, 0
541.5385, 17, 417, 90, -90.69231, 0
541.56, 17, 417, 90, -90.69231, 0
541.5767, 17, 416, 90, -90.69231, 0
541.5963, 17, 416, 90, -90.69231, 0
541.6166, 16, 417, 90, -90.69231, 0
541.637, 17, 417, 90, -90.69231, 0
541.6577, 16, 416, 90, -90.69231, 0
541.678, 16, 417, 90, -90.69231, 0
541.6945, 16, 417, 89, -91.38461, 0
541.7147, 17, 417, 89, -91.38461, 0
541.7356, 17, 417, 89, -91.38461, 0
541.7562, 17, 417, 90, -90.69231, 0
541.777, 16, 417, 90, -90.69231, 0
541.7967, 16, 417, 90, -90.69231, 0
541.8132, 17, 417, 89, -91.38461, 0
541.8339, 17, 417, 89, -91.38461, 0
541.8542, 17, 417, 89, -91.38461, 0
541.8756, 17, 416, 90, -90.69231, 0
541.8951, 17, 417, 89, -91.38461, 0
541.9156, 17, 417, 90, -90.69231, 0
541.9319, 17, 417, 90, -90.69231, 0
541.9525, 17, 417, 89, -91.38461, 0
541.9737, 17, 417, 89, -91.38461, 0
541.9941, 17, 417, 90, -90.69231, 0
542.0138, 17, 417, 90, -90.69231, 0
542.0349, 16, 417, 90, -90.69231, 0
542.0505, 17, 417, 90, -90.69231, 0
542.0712, 17, 417, 89, -91.38461, 0
542.093, 17, 417, 90, -90.69231, 0
542.1129, 17, 416, 89, -91.38461, 0
542.133, 16, 416, 90, -90.69231, 0
542.153, 16, 417, 89, -91.38461, 0
542.1695, 17, 417, 89, -91.38461, 0
542.1901, 16, 417, 90, -90.69231, 0
542.2109, 16, 417, 90, -90.69231, 0
542.231, 16, 417, 90, -90.69231, 0
542.252, 17, 417, 90, -90.69231, 0
542.2684, 16, 417, 89, -91.38461, 0
542.2883, 17, 417, 90, -90.69231, 0
542.3096, 16, 417, 89, -91.38461, 0
542.3296, 17, 417, 89, -91.38461, 0
542.3499, 17, 417, 89, -91.38461, 0
542.3699, 17, 417, 89, -91.38461, 0
542.3867, 17, 416, 89, -91.38461, 0
542.4076, 17, 417, 89, -91.38461, 0
542.4274, 17, 417, 90, -90.69231, 0
542.4481, 16, 417, 90, -90.69231, 0
542.4705, 16, 416, 90, -90.69231, 0
542.4916, 16, 417, 90, -90.69231, 0
542.5076, 17, 417, 89, -91.38461, 0
542.5269, 17, 417, 90, -90.69231, 0
542.5463, 16, 417, 90, -90.69231, 0
542.5675, 17, 417, 90, -90.69231, 0
542.5872, 17, 417, 90, -90.69231, 0
542.6075, 17, 416, 90, -90.69231, 0
542.6252, 16, 417, 90, -90.69231, 0
542.6445, 17, 417, 89, -91.38461, 0
542.665, 17, 417, 89, -91.38461, 0
542.6855, 17, 416, 90, -90.69231, 0
542.7061, 16, 417, 90, -90.69231, 0
542.7271, 16, 416, 90, -90.69231, 0
542.7438, 16, 417, 90, -90.69231, 0
542.7635, 16, 417, 89, -91.38461, 0
542.7841, 17, 417, 90, -90.69231, 0
542.8041, 17, 417, 90, -90.69231, 0
542.8254, 17, 417, 90, -90.69231, 0
542.8451, 16, 417, 90, -90.69231, 0
542.8619, 17, 416, 90, -90.69231, 0
542.882, 17, 417, 89, -91.38461, 0
542.9031, 17, 417, 89, -91.38461, 0
542.9236, 17, 417, 89, -91.38461, 0
542.9441, 17, 417, 90, -90.69231, 0
542.9642, 16, 417, 90, -90.69231, 0
542.9805, 16, 417, 89, -91.38461, 0
543.0007, 16, 417, 89, -91.38461, 0
543.0212, 17, 417, 89, -91.38461, 0
543.043, 17, 417, 90, -90.69231, 0
543.0628, 17, 417, 90, -90.69231, 0
543.0787, 16, 417, 90, -90.69231, 0
543.0991, 16, 418, 89, -91.38461, 0
543.1198, 16, 417, 89, -91.38461, 0
543.1401, 17, 417, 89, -91.38461, 0
543.1609, 16, 417, 90, -90.69231, 0
543.1812, 17, 417, 89, -91.38461, 0
543.1976, 17, 418, 90, -90.69231, 0
543.2181, 16, 417, 90, -90.69231, 0
543.2385, 16, 417, 90, -90.69231, 0
543.2603, 16, 417, 90, -90.69231, 0
543.2795, 16, 417, 90, -90.69231, 0
543.3003, 16, 417, 90, -90.69231, 0
543.3168, 16, 417, 90, -90.69231, 0
543.3369, 16, 418, 89, -91.38461, 0
543.3574, 16, 417, 89, -91.38461, 0
543.3776, 16, 417, 90, -90.69231, 0
543.3984, 17, 417, 89, -91.38461, 0
543.4187, 17, 418, 90, -90.69231, 0
543.4349, 16, 417, 90, -90.69231, 0
543.4554, 16, 417, 90, -90.69231, 0
543.4767, 16, 418, 90, -90.69231, 0
543.4965, 17, 417, 89, -91.38461, 0
543.517, 16, 417, 89, -91.38461, 0
543.5373, 17, 417, 89, -91.38461, 0
543.5538, 16, 417, 89, -91.38461, 0
543.5746, 17, 418, 89, -91.38461, 0
543.5947, 16, 418, 89, -91.38461, 0
543.6172, 17, 417, 89, -91.38461, 0
543.6373, 17, 417, 89, -91.38461, 0
543.6584, 15, 418, 90, -90.69231, 0
543.6771, 17, 418, 89, -91.38461, 0
543.6956, 17, 418, 90, -90.69231, 0
543.7153, 17, 418, 90, -90.69231, 0
543.7357, 17, 418, 89, -91.38461, 0
543.7567, 17, 417, 90, -90.69231, 0
543.7761, 16, 417, 89, -91.38461, 0
543.7941, 17, 417, 89, -91.38461, 0
543.8146, 16, 417, 89, -91.38461, 0
543.8325, 16, 418, 89, -91.38461, 0
543.8532, 17, 418, 90, -90.69231, 0
543.8739, 17, 417, 89, -91.38461, 0
543.8912, 16, 418, 89, -91.38461, 0
543.9111, 16, 417, 89, -91.38461, 0
543.931, 16, 418, 89, -91.38461, 0
543.9517, 16, 418, 89, -91.38461, 0
543.9742, 16, 417, 89, -91.38461, 0
543.9948, 16, 418, 89, -91.38461, 0
544.0114, 17, 418, 89, -91.38461, 0
544.0309, 16, 418, 89, -91.38461, 0
544.0515, 17, 418, 89, -91.38461, 0
544.0715, 17, 417, 89, -91.38461, 0
544.0925, 17, 418, 90, -90.69231, 0
544.1134, 16, 417, 89, -91.38461, 0
544.1299, 16, 417, 89, -91.38461, 0
544.1495, 17, 417, 89, -91.38461, 0
544.1701, 17, 417, 89, -91.38461, 0
544.1918, 17, 417, 90, -90.69231, 0
544.2118, 17, 417, 90, -90.69231, 0
544.2314, 16, 417, 89, -91.38461, 0
544.2481, 17, 417, 89, -91.38461, 0
544.2703, 17, 418, 89, -91.38461, 0
544.2888, 16, 418, 89, -91.38461, 0
544.3077, 17, 418, 89, -91.38461, 0
544.329, 16, 417, 89, -91.38461, 0
544.3485, 16, 417, 89, -91.38461, 0
544.3655, 16, 416, 89, -91.38461, 0
544.3853, 16, 417, 89, -91.38461, 0
544.4063, 17, 417, 89, -91.38461, 0
544.4269, 16, 416, 89, -91.38461, 0
544.4467, 16, 417, 89, -91.38461, 0
544.4636, 16, 417, 89, -91.38461, 0
544.4834, 16, 417, 89, -91.38461, 0
544.5042, 17, 417, 89, -91.38461, 0
544.5255, 16, 417, 89, -91.38461, 0
544.5486, 17, 417, 89, -91.38461, 0
544.5681, 17, 417, 89, -91.38461, 0
544.5846, 16, 417, 89, -91.38461, 0
544.6047, 16, 417, 89, -91.38461, 0
544.6268, 16, 416, 89, -91.38461, 0
544.6456, 16, 417, 89, -91.38461, 0
544.6666, 17, 417, 89, -91.38461, 0
544.6867, 16, 418, 90, -90.69231, 0
544.7045, 16, 418, 89, -91.38461, 0
544.7247, 16, 418, 89, -91.38461, 0
544.7449, 16, 418, 89, -91.38461, 0
544.7669, 16, 417, 89, -91.38461, 0
544.7855, 17, 417, 89, -91.38461, 0
544.805, 17, 417, 89, -91.38461, 0
544.8228, 16, 417, 89, -91.38461, 0
544.8412, 16, 418, 89, -91.38461, 0
544.8613, 16, 417, 90, -90.69231, 0
544.881, 17, 417, 90, -90.69231, 0
544.9016, 17, 417, 89, -91.38461, 0
544.9217, 16, 416, 89, -91.38461, 0
544.9384, 16, 417, 89, -91.38461, 0
544.9595, 17, 417, 89, -91.38461, 0
544.9791, 16, 417, 89, -91.38461, 0
544.9995, 16, 416, 89, -91.38461, 0
545.0199, 17, 418, 90, -90.69231, 0
545.0411, 17, 417, 89, -91.38461, 0
545.0581, 17, 418, 89, -91.38461, 0
545.0777, 16, 418, 89, -91.38461, 0
545.0978, 16, 418, 89, -91.38461, 0
545.1183, 16, 418, 89, -91.38461, 0
545.1387, 16, 418, 89, -91.38461, 0
545.1601, 16, 418, 89, -91.38461, 0
545.1769, 17, 418, 89, -91.38461, 0
545.1962, 16, 418, 89, -91.38461, 0
545.2167, 17, 418, 89, -91.38461, 0
545.2371, 17, 418, 89, -91.38461, 0
545.2576, 16, 417, 89, -91.38461, 0
545.2753, 16, 418, 89, -91.38461, 0
545.2948, 17, 418, 89, -91.38461, 0
545.3152, 17, 417, 89, -91.38461, 0
545.3353, 17, 418, 90, -90.69231, 0
545.3568, 17, 417, 90, -90.69231, 0
545.3771, 17, 418, 89, -91.38461, 0
545.3936, 17, 418, 89, -91.38461, 0
545.4131, 17, 418, 89, -91.38461, 0
545.4344, 17, 418, 89, -91.38461, 0
545.454, 17, 418, 89, -91.38461, 0
545.476, 17, 418, 89, -91.38461, 0
545.4951, 16, 418, 89, -91.38461, 0
545.5117, 17, 417, 89, -91.38461, 0
545.5319, 16, 417, 89, -91.38461, 0
545.553, 17, 417, 90, -90.69231, 0
545.5735, 17, 418, 90, -90.69231, 0
545.5937, 17, 418, 89, -91.38461, 0
545.6141, 16, 417, 90, -90.69231, 0
545.6303, 16, 418, 89, -91.38461, 0
545.6509, 17, 418, 89, -91.38461, 0
545.6713, 16, 418, 89, -91.38461, 0
545.6926, 16, 418, 89, -91.38461, 0
545.7125, 16, 418, 90, -90.69231, 0
545.7332, 16, 418, 89, -91.38461, 0
545.749, 17, 418, 89, -91.38461, 0
545.7695, 16, 418, 89, -91.38461, 0
545.7902, 17, 418, 89, -91.38461, 0
545.811, 17, 418, 89, -91.38461, 0
545.8311, 16, 418, 90, -90.69231, 0
545.8513, 17, 418, 89, -91.38461, 0
545.8703, 16, 418, 89, -91.38461, 0
545.8889, 16, 418, 89, -91.38461, 0
545.9103, 17, 418, 89, -91.38461, 0
545.9294, 17, 418, 89, -91.38461, 0
545.9501, 16, 418, 89, -91.38461, 0
545.9664, 16, 418, 89, -91.38461, 0
545.9866, 16, 418, 89, -91.38461, 0
546.0078, 17, 418, 89, -91.38461, 0
546.0278, 17, 418, 89, -91.38461, 0
546.048, 17, 418, 89, -91.38461, 0
546.0685, 17, 418, 90, -90.69231, 0
546.0851, 16, 418, 89, -91.38461, 0
546.1054, 16, 418, 89, -91.38461, 0
546.1268, 16, 418, 89, -91.38461, 0
546.1463, 16, 418, 89, -91.38461, 0
546.1672, 16, 418, 89, -91.38461, 0
546.1873, 16, 418, 89, -91.38461, 0
546.2037, 16, 418, 89, -91.38461, 0
546.2242, 16, 418, 89, -91.38461, 0
546.2447, 16, 418, 89, -91.38461, 0
546.265, 16, 418, 89, -91.38461, 0
546.2857, 17, 418, 89, -91.38461, 0
546.3063, 16, 418, 89, -91.38461, 0
546.3236, 16, 419, 89, -91.38461, 0
546.3445, 16, 418, 89, -91.38461, 0
546.3648, 17, 418, 89, -91.38461, 0
546.3838, 16, 418, 89, -91.38461, 0
546.4044, 17, 418, 89, -91.38461, 0
546.426, 16, 418, 89, -91.38461, 0
546.4422, 16, 418, 89, -91.38461, 0
546.4618, 17, 418, 89, -91.38461, 0
546.4827, 17, 418, 89, -91.38461, 0
546.5029, 17, 419, 89, -91.38461, 0
546.5237, 17, 418, 89, -91.38461, 0
546.5445, 17, 418, 89, -91.38461, 0
546.5616, 17, 418, 90, -90.69231, 0
546.5806, 16, 418, 89, -91.38461, 0
546.6013, 16, 418, 89, -91.38461, 0
546.6213, 16, 418, 89, -91.38461, 0
546.6429, 17, 417, 89, -91.38461, 0
546.6628, 16, 418, 89, -91.38461, 0
546.6789, 16, 418, 89, -91.38461, 0
546.6992, 17, 418, 89, -91.38461, 0
546.7199, 16, 418, 89, -91.38461, 0
546.7403, 17, 418, 89, -91.38461, 0
546.7609, 17, 418, 89, -91.38461, 0
546.7775, 17, 418, 89, -91.38461, 0
546.7991, 17, 419, 89, -91.38461, 0
546.8182, 16, 419, 89, -91.38461, 0
546.8383, 17, 419, 89, -91.38461, 0
546.8599, 16, 419, 89, -91.38461, 0
546.8795, 16, 418, 89, -91.38461, 0
546.896, 16, 418, 89, -91.38461, 0
546.9166, 17, 418, 89, -91.38461, 0
546.937, 16, 417, 89, -91.38461, 0
546.9581, 16, 416, 89, -91.38461, 0
546.978, 17, 416, 89, -91.38461, 0
546.9985, 17, 416, 89, -91.38461, 0
547.015, 16, 416, 89, -91.38461, 0
547.035, 17, 416, 89, -91.38461, 0
547.0555, 17, 416, 89, -91.38461, 0
547.0769, 16, 416, 89, -91.38461, 0
547.0966, 16, 417, 89, -91.38461, 0
547.117, 16, 417, 89, -91.38461, 0
547.1337, 17, 417, 89, -91.38461, 0
547.154, 16, 417, 89, -91.38461, 0
547.175, 17, 417, 89, -91.38461, 0
547.1953, 16, 417, 89, -91.38461, 0
547.2153, 16, 417, 89, -91.38461, 0
547.2357, 17, 416, 89, -91.38461, 0
547.2523, 17, 417, 89, -91.38461, 0
547.2734, 16, 418, 89, -91.38461, 0
547.2943, 17, 418, 89, -91.38461, 0
547.3139, 17, 418, 89, -91.38461, 0
547.3346, 16, 418, 89, -91.38461, 0
547.3547, 17, 417, 89, -91.38461, 0
547.3718, 17, 418, 89, -91.38461, 0
547.3926, 17, 418, 89, -91.38461, 0
547.4128, 17, 418, 89, -91.38461, 0
547.433, 17, 417, 89, -91.38461, 0
547.4533, 16, 417, 89, -91.38461, 0
547.4692, 16, 417, 89, -91.38461, 0
547.4904, 16, 417, 89, -91.38461, 0
547.5106, 16, 417, 89, -91.38461, 0
547.5308, 17, 417, 89, -91.38461, 0
547.5513, 16, 417, 89, -91.38461, 0
547.5715, 16, 417, 89, -91.38461, 0
547.5882, 16, 417, 89, -91.38461, 0
547.6093, 16, 417, 89, -91.38461, 0
547.6292, 17, 417, 89, -91.38461, 0
547.6495, 17, 417, 89, -91.38461, 0
547.6699, 17, 416, 89, -91.38461, 0
547.6909, 16, 417, 89, -91.38461, 0
547.7082, 16, 417, 89, -91.38461, 0
547.7275, 16, 417, 89, -91.38461, 0
547.7478, 17, 418, 89, -91.38461, 0
547.7684, 17, 418, 89, -91.38461, 0
547.7886, 17, 418, 89, -91.38461, 0
547.8101, 16, 418, 89, -91.38461, 0
547.8267, 17, 419, 89, -91.38461, 0
547.8461, 16, 419, 88, -92.07692, 0
547.8665, 17, 419, 89, -91.38461, 0
547.887, 17, 419, 89, -91.38461, 0
547.9078, 17, 419, 89, -91.38461, 0
547.9277, 16, 419, 89, -91.38461, 0
547.9447, 16, 419, 89, -91.38461, 0
547.9651, 16, 419, 89, -91.38461, 0
547.9855, 16, 418, 89, -91.38461, 0
548.0057, 16, 419, 89, -91.38461, 0
548.0271, 16, 418, 89, -91.38461, 0
548.0469, 17, 418, 89, -91.38461, 0
548.0642, 16, 417, 89, -91.38461, 0
548.0837, 16, 418, 89, -91.38461, 0
548.1041, 16, 417, 88, -92.07692, 0
548.1251, 16, 417, 89, -91.38461, 0
548.145, 17, 417, 89, -91.38461, 0
548.1617, 17, 417, 89, -91.38461, 0
548.1818, 16, 417, 89, -91.38461, 0
548.2028, 17, 417, 89, -91.38461, 0
548.2235, 17, 418, 89, -91.38461, 0
548.2441, 17, 418, 89, -91.38461, 0
548.2639, 16, 418, 89, -91.38461, 0
548.2811, 17, 418, 89, -91.38461, 0
548.3019, 17, 418, 89, -91.38461, 0
548.3212, 16, 418, 89, -91.38461, 0
548.343, 16, 418, 89, -91.38461, 0
548.3633, 17, 418, 89, -91.38461, 0
548.3829, 17, 418, 89, -91.38461, 0
548.3989, 17, 418, 89, -91.38461, 0
548.4194, 16, 418, 89, -91.38461, 0
548.4406, 16, 418, 89, -91.38461, 0
548.4607, 16, 419, 89, -91.38461, 0
548.4809, 16, 419, 89, -91.38461, 0
548.5017, 17, 418, 89, -91.38461, 0
548.5178, 17, 418, 88, -92.07692, 0
548.5383, 16, 419, 89, -91.38461, 0
548.5596, 17, 419, 89, -91.38461, 0
548.5794, 16, 418, 89, -91.38461, 0
548.5995, 17, 418, 89, -91.38461, 0
548.6201, 16, 418, 89, -91.38461, 0
548.6365, 16, 418, 88, -92.07692, 0
548.658, 17, 418, 89, -91.38461, 0
548.6776, 17, 418, 89, -91.38461, 0
548.6981, 17, 418, 89, -91.38461, 0
548.7195, 16, 418, 89, -91.38461, 0
548.7388, 16, 418, 89, -91.38461, 0
548.7552, 16, 418, 89, -91.38461, 0
548.7767, 17, 418, 89, -91.38461, 0
548.7969, 16, 418, 89, -91.38461, 0
548.817, 17, 419, 89, -91.38461, 0
548.8371, 16, 419, 89, -91.38461, 0
548.8535, 16, 418, 89, -91.38461, 0
548.8746, 16, 418, 89, -91.38461, 0
548.8951, 16, 418, 89, -91.38461, 0
548.9153, 16, 418, 89, -91.38461, 0
548.9356, 16, 418, 89, -91.38461, 0
548.9595, 16, 418, 89, -91.38461, 0
548.9738, 16, 418, 89, -91.38461, 0
548.995, 16, 418, 89, -91.38461, 0
549.0134, 17, 418, 89, -91.38461, 0
549.0338, 17, 418, 88, -92.07692, 0
549.0546, 16, 418, 89, -91.38461, 0
549.0757, 16, 418, 89, -91.38461, 0
549.092, 16, 418, 89, -91.38461, 0
549.112, 16, 418, 89, -91.38461, 0
549.1324, 16, 418, 89, -91.38461, 0
549.153, 16, 418, 89, -91.38461, 0
549.1738, 16, 418, 89, -91.38461, 0
549.1943, 16, 419, 89, -91.38461, 0
549.2109, 16, 419, 89, -91.38461, 0
549.2305, 16, 418, 88, -92.07692, 0
549.251, 17, 419, 89, -91.38461, 0
549.2712, 17, 419, 89, -91.38461, 0
549.2929, 16, 419, 89, -91.38461, 0
549.3129, 16, 419, 89, -91.38461, 0
549.3291, 16, 418, 89, -91.38461, 0
549.3493, 17, 418, 89, -91.38461, 0
549.3697, 17, 417, 89, -91.38461, 0
549.3906, 16, 418, 89, -91.38461, 0
549.4109, 16, 418, 89, -91.38461, 0
549.431, 16, 418, 89, -91.38461, 0
549.4476, 16, 418, 89, -91.38461, 0
549.4686, 16, 418, 89, -91.38461, 0
549.4883, 16, 418, 89, -91.38461, 0
549.5098, 16, 417, 89, -91.38461, 0
549.5295, 16, 418, 90, -90.69231, 0
549.5499, 16, 418, 89, -91.38461, 0
549.5663, 16, 418, 89, -91.38461, 0
549.5867, 17, 418, 89, -91.38461, 0
549.6075, 17, 418, 89, -91.38461, 0
549.6277, 16, 418, 89, -91.38461, 0
549.6483, 16, 418, 89, -91.38461, 0
549.6698, 16, 418, 89, -91.38461, 0
549.6857, 16, 418, 89, -91.38461, 0
549.7054, 17, 418, 89, -91.38461, 0
549.7269, 17, 418, 89, -91.38461, 0
549.7465, 16, 418, 89, -91.38461, 0
549.767, 16, 418, 89, -91.38461, 0
549.7837, 16, 417, 89, -91.38461, 0
549.8041, 16, 418, 89, -91.38461, 0
549.8243, 17, 418, 89, -91.38461, 0
549.8448, 17, 418, 89, -91.38461, 0
549.8652, 16, 418, 89, -91.38461, 0
549.8864, 16, 418, 89, -91.38461, 0
549.9027, 16, 418, 89, -91.38461, 0
549.923, 16, 418, 88, -92.07692, 0
549.9439, 17, 418, 89, -91.38461, 0
549.9636, 17, 418, 89, -91.38461, 0
549.9843, 16, 418, 89, -91.38461, 0
550.0045, 16, 418, 89, -91.38461, 0
550.0226, 17, 418, 89, -91.38461, 0
550.0422, 16, 418, 88, -92.07692, 0
550.0646, 17, 418, 89, -91.38461, 0
550.0854, 17, 418, 89, -91.38461, 0
550.105, 16, 418, 89, -91.38461, 0
550.1261, 16, 419, 89, -91.38461, 0
550.1442, 16, 419, 89, -91.38461, 0
550.1638, 16, 418, 89, -91.38461, 0
550.1836, 16, 418, 89, -91.38461, 0
550.204, 16, 418, 89, -91.38461, 0
550.2249, 16, 418, 89, -91.38461, 0
550.2452, 17, 418, 89, -91.38461, 0
550.2616, 16, 418, 89, -91.38461, 0
550.2845, 16, 419, 89, -91.38461, 0
550.3022, 16, 419, 89, -91.38461, 0
550.3229, 16, 418, 89, -91.38461, 0
550.3442, 16, 418, 89, -91.38461, 0
550.3619, 17, 418, 89, -91.38461, 0
550.3788, 17, 418, 89, -91.38461, 0
550.3979, 16, 418, 89, -91.38461, 0
550.4183, 16, 418, 89, -91.38461, 0
550.4385, 16, 418, 89, -91.38461, 0
550.46, 16, 418, 89, -91.38461, 0
550.4765, 17, 418, 89, -91.38461, 0
550.496, 16, 418, 89, -91.38461, 0
550.5164, 16, 418, 88, -92.07692, 0
550.5369, 16, 418, 89, -91.38461, 0
550.5576, 16, 418, 88, -92.07692, 0
550.5779, 16, 417, 89, -91.38461, 0
550.5944, 16, 418, 88, -92.07692, 0
550.6147, 17, 418, 89, -91.38461, 0
550.6377, 17, 418, 89, -91.38461, 0
550.6611, 16, 418, 90, -90.69231, 0
550.6799, 16, 418, 89, -91.38461, 0
550.6991, 17, 418, 89, -91.38461, 0
550.7157, 16, 418, 88, -92.07692, 0
550.736, 17, 418, 89, -91.38461, 0
550.7573, 16, 418, 89, -91.38461, 0
550.7781, 16, 418, 89, -91.38461, 0
550.7977, 16, 418, 89, -91.38461, 0
550.8182, 16, 418, 89, -91.38461, 0
550.8361, 16, 418, 88, -92.07692, 0
550.8555, 17, 418, 89, -91.38461, 0
550.8761, 16, 418, 89, -91.38461, 0
550.8975, 16, 418, 89, -91.38461, 0
550.9162, 16, 418, 89, -91.38461, 0
550.9367, 16, 418, 89, -91.38461, 0
550.9544, 16, 419, 89, -91.38461, 0
550.9749, 16, 419, 89, -91.38461, 0
550.9951, 17, 419, 89, -91.38461, 0
551.0145, 16, 419, 89, -91.38461, 0
551.035, 17, 419, 89, -91.38461, 0
551.0538, 16, 418, 89, -91.38461, 0
551.0699, 17, 418, 88, -92.07692, 0
551.0905, 16, 418, 88, -92.07692, 0
551.1144, 17, 418, 89, -91.38461, 0
551.134, 16, 418, 89, -91.38461, 0
551.1539, 17, 418, 89, -91.38461, 0
551.171, 16, 418, 88, -92.07692, 0
551.1912, 16, 418, 89, -91.38461, 0
551.2102, 16, 418, 89, -91.38461, 0
551.2297, 17, 418, 89, -91.38461, 0
551.2503, 16, 418, 89, -91.38461, 0
551.271, 16, 419, 89, -91.38461, 0
551.2893, 17, 418, 89, -91.38461, 0
551.3079, 17, 418, 89, -91.38461, 0
551.3284, 16, 418, 89, -91.38461, 0
551.3488, 17, 418, 89, -91.38461, 0
551.3688, 17, 418, 89, -91.38461, 0
551.3887, 16, 418, 90, -90.69231, 0
551.4059, 16, 418, 89, -91.38461, 0
551.4269, 17, 418, 89, -91.38461, 0
551.4462, 17, 418, 88, -92.07692, 0
551.4668, 17, 418, 89, -91.38461, 0
551.4871, 17, 418, 89, -91.38461, 0
551.5079, 17, 418, 89, -91.38461, 0
551.5259, 17, 418, 89, -91.38461, 0
551.5444, 17, 418, 89, -91.38461, 0
551.5651, 17, 418, 89, -91.38461, 0
551.5853, 17, 418, 89, -91.38461, 0
551.6057, 16, 418, 89, -91.38461, 0
551.6297, 17, 418, 89, -91.38461, 0
551.6443, 16, 418, 88, -92.07692, 0
551.6633, 16, 418, 89, -91.38461, 0
551.6837, 16, 418, 88, -92.07692, 0
551.7042, 17, 418, 89, -91.38461, 0
551.7255, 16, 418, 88, -92.07692, 0
551.7451, 16, 418, 89, -91.38461, 0
551.7617, 16, 418, 89, -91.38461, 0
551.782, 17, 418, 89, -91.38461, 0
551.8026, 16, 418, 89, -91.38461, 0
551.8237, 16, 418, 89, -91.38461, 0
551.8442, 16, 418, 88, -92.07692, 0
551.86, 17, 418, 89, -91.38461, 0
551.8804, 17, 418, 89, -91.38461, 0
551.9008, 16, 418, 89, -91.38461, 0
551.921, 16, 418, 89, -91.38461, 0
551.943, 16, 418, 89, -91.38461, 0
551.9623, 16, 418, 89, -91.38461, 0
551.9788, 17, 419, 88, -92.07692, 0
551.9991, 17, 418, 89, -91.38461, 0
552.0197, 16, 418, 89, -91.38461, 0
552.0403, 16, 418, 89, -91.38461, 0
552.0612, 16, 418, 89, -91.38461, 0
552.0809, 16, 418, 89, -91.38461, 0
552.098, 17, 418, 89, -91.38461, 0
552.1178, 16, 418, 89, -91.38461, 0
552.1382, 17, 418, 89, -91.38461, 0
552.1599, 17, 418, 89, -91.38461, 0
552.1793, 16, 418, 89, -91.38461, 0
552.1998, 17, 419, 89, -91.38461, 0
552.2161, 16, 418, 89, -91.38461, 0
552.2368, 17, 419, 89, -91.38461, 0
552.2573, 17, 418, 89, -91.38461, 0
552.2775, 17, 418, 89, -91.38461, 0
552.3, 16, 418, 89, -91.38461, 0
552.3185, 16, 418, 89, -91.38461, 0
552.3354, 16, 418, 89, -91.38461, 0
552.356, 16, 418, 89, -91.38461, 0
552.377, 17, 418, 89, -91.38461, 0
552.3964, 16, 418, 89, -91.38461, 0
552.4168, 16, 418, 89, -91.38461, 0
552.4371, 16, 418, 88, -92.07692, 0
552.4539, 16, 419, 88, -92.07692, 0
552.475, 17, 418, 88, -92.07692, 0
552.4965, 17, 419, 89, -91.38461, 0
552.5175, 16, 418, 89, -91.38461, 0
552.5374, 16, 419, 89, -91.38461, 0
552.5582, 16, 418, 89, -91.38461, 0
552.5762, 17, 418, 88, -92.07692, 0
552.5966, 16, 418, 89, -91.38461, 0
552.6156, 16, 418, 89, -91.38461, 0
552.6355, 16, 418, 89, -91.38461, 0
552.6564, 17, 418, 89, -91.38461, 0
552.6747, 16, 418, 89, -91.38461, 0
552.694, 16, 418, 89, -91.38461, 0
552.714, 17, 418, 88, -92.07692, 0
552.735, 17, 418, 89, -91.38461, 0
552.7543, 17, 419, 89, -91.38461, 0
552.7755, 16, 419, 89, -91.38461, 0
552.7933, 16, 419, 89, -91.38461, 0
552.8133, 16, 419, 89, -91.38461, 0
552.8327, 16, 419, 88, -92.07692, 0
552.8533, 17, 419, 88, -92.07692, 0
552.8745, 16, 418, 89, -91.38461, 0
552.8945, 17, 419, 89, -91.38461, 0
552.9114, 17, 418, 89, -91.38461, 0
552.9308, 15, 418, 88, -92.07692, 0
552.9512, 16, 418, 89, -91.38461, 0
552.9716, 17, 418, 89, -91.38461, 0
552.9929, 16, 418, 89, -91.38461, 0
553.0145, 17, 418, 89, -91.38461, 0
553.0305, 16, 418, 89, -91.38461, 0
553.0496, 16, 418, 89, -91.38461, 0
553.07, 16, 418, 89, -91.38461, 0
553.0907, 16, 419, 89, -91.38461, 0
553.1119, 17, 418, 89, -91.38461, 0
553.1296, 17, 418, 89, -91.38461, 0
553.1464, 17, 418, 89, -91.38461, 0
553.1663, 16, 419, 89, -91.38461, 0
553.1868, 17, 419, 89, -91.38461, 0
553.2081, 17, 418, 89, -91.38461, 0
553.2279, 16, 419, 89, -91.38461, 0
553.2485, 17, 418, 89, -91.38461, 0
553.2647, 17, 418, 89, -91.38461, 0
553.285, 16, 419, 89, -91.38461, 0
553.3055, 16, 419, 89, -91.38461, 0
553.327, 16, 419, 89, -91.38461, 0
553.3467, 16, 418, 89, -91.38461, 0
553.3635, 17, 418, 89, -91.38461, 0
553.3833, 16, 418, 90, -90.69231, 0
553.4041, 16, 419, 89, -91.38461, 0
553.4257, 17, 418, 89, -91.38461, 0
553.445, 17, 418, 89, -91.38461, 0
553.4655, 16, 418, 89, -91.38461, 0
553.4817, 17, 418, 88, -92.07692, 0
553.5028, 16, 419, 89, -91.38461, 0
553.5231, 17, 418, 89, -91.38461, 0
553.5438, 16, 418, 90, -90.69231, 0
553.5642, 16, 419, 89, -91.38461, 0
553.5844, 16, 419, 89, -91.38461, 0
553.6004, 17, 419, 89, -91.38461, 0
553.6209, 16, 419, 89, -91.38461, 0
553.644, 17, 419, 89, -91.38461, 0
553.6621, 16, 419, 89, -91.38461, 0
553.6828, 16, 419, 89, -91.38461, 0
553.7031, 17, 419, 89, -91.38461, 0
553.7194, 17, 418, 89, -91.38461, 0
553.7398, 16, 418, 89, -91.38461, 0
553.7609, 16, 418, 89, -91.38461, 0
553.7808, 17, 418, 89, -91.38461, 0
553.8013, 16, 418, 90, -90.69231, 0
553.8215, 16, 418, 89, -91.38461, 0
553.8383, 17, 419, 89, -91.38461, 0
553.8593, 17, 418, 89, -91.38461, 0
553.879, 16, 419, 89, -91.38461, 0
553.8995, 16, 418, 89, -91.38461, 0
553.9199, 16, 418, 89, -91.38461, 0
553.941, 17, 418, 90, -90.69231, 0
553.9576, 16, 418, 89, -91.38461, 0
553.9775, 16, 418, 89, -91.38461, 0
553.9978, 16, 418, 89, -91.38461, 0
554.0184, 17, 417, 89, -91.38461, 0
554.0385, 16, 418, 89, -91.38461, 0
554.0552, 17, 418, 89, -91.38461, 0
554.0768, 16, 418, 89, -91.38461, 0
554.0962, 16, 418, 89, -91.38461, 0
554.1166, 17, 418, 89, -91.38461, 0
554.137, 17, 418, 89, -91.38461, 0
554.1581, 16, 418, 89, -91.38461, 0
554.1755, 17, 418, 89, -91.38461, 0
554.1944, 17, 418, 89, -91.38461, 0
554.2148, 16, 418, 89, -91.38461, 0
554.2354, 16, 418, 89, -91.38461, 0
554.256, 16, 418, 89, -91.38461, 0
554.2771, 16, 418, 89, -91.38461, 0
554.2939, 17, 417, 89, -91.38461, 0
554.3142, 17, 417, 89, -91.38461, 0
554.3337, 16, 418, 89, -91.38461, 0
554.3542, 16, 418, 89, -91.38461, 0
554.3757, 17, 418, 89, -91.38461, 0
554.3951, 16, 418, 89, -91.38461, 0
554.412, 17, 418, 89, -91.38461, 0
554.4319, 17, 418, 89, -91.38461, 0
554.4528, 16, 418, 89, -91.38461, 0
554.4733, 16, 418, 89, -91.38461, 0
554.4941, 16, 418, 89, -91.38461, 0
554.5138, 16, 418, 89, -91.38461, 0
554.5304, 17, 418, 89, -91.38461, 0
554.5507, 16, 418, 89, -91.38461, 0
554.5712, 16, 418, 89, -91.38461, 0
554.593, 16, 418, 89, -91.38461, 0
554.6125, 17, 418, 89, -91.38461, 0
554.6332, 17, 418, 89, -91.38461, 0
554.6489, 17, 418, 89, -91.38461, 0
554.6695, 16, 418, 89, -91.38461, 0
554.6901, 16, 418, 89, -91.38461, 0
554.7109, 17, 417, 89, -91.38461, 0
554.7316, 17, 418, 89, -91.38461, 0
554.7482, 16, 418, 89, -91.38461, 0
554.7677, 16, 417, 89, -91.38461, 0
554.7882, 17, 418, 89, -91.38461, 0
554.8099, 16, 417, 89, -91.38461, 0
554.8292, 16, 418, 89, -91.38461, 0
554.8498, 16, 418, 89, -91.38461, 0
554.866, 16, 418, 89, -91.38461, 0
554.8867, 16, 418, 89, -91.38461, 0
554.907, 16, 418, 89, -91.38461, 0
554.9277, 16, 418, 89, -91.38461, 0
554.948, 16, 418, 90, -90.69231, 0
554.9686, 16, 418, 90, -90.69231, 0
554.9851, 16, 418, 89, -91.38461, 0
555.0052, 16, 418, 89, -91.38461, 0
555.0267, 16, 418, 88, -92.07692, 0
555.0464, 17, 418, 89, -91.38461, 0
555.0668, 16, 418, 89, -91.38461, 0
555.0872, 16, 418, 89, -91.38461, 0
555.1035, 17, 418, 89, -91.38461, 0
555.1242, 16, 418, 90, -90.69231, 0
555.1445, 16, 418, 89, -91.38461, 0
555.1672, 16, 418, 89, -91.38461, 0
555.1877, 17, 418, 89, -91.38461, 0
555.2058, 16, 418, 89, -91.38461, 0
555.2236, 16, 418, 89, -91.38461, 0
555.2438, 17, 418, 89, -91.38461, 0
555.2634, 17, 418, 89, -91.38461, 0
555.2844, 16, 418, 89, -91.38461, 0
555.3047, 16, 418, 89, -91.38461, 0
555.327, 16, 418, 89, -91.38461, 0
555.3435, 17, 418, 89, -91.38461, 0
555.3627, 16, 418, 89, -91.38461, 0
555.3837, 16, 419, 89, -91.38461, 0
555.4034, 16, 418, 89, -91.38461, 0
555.4241, 16, 418, 89, -91.38461, 0
555.4411, 16, 418, 89, -91.38461, 0
555.4614, 17, 418, 89, -91.38461, 0
555.481, 17, 418, 89, -91.38461, 0
555.5013, 16, 418, 89, -91.38461, 0
555.5222, 17, 418, 89, -91.38461, 0
555.5436, 16, 418, 89, -91.38461, 0
555.5598, 17, 418, 89, -91.38461, 0
555.5792, 17, 418, 89, -91.38461, 0
555.5997, 17, 418, 89, -91.38461, 0
555.6202, 17, 418, 89, -91.38461, 0
555.6414, 16, 418, 89, -91.38461, 0
555.6616, 16, 419, 89, -91.38461, 0
555.6778, 16, 418, 89, -91.38461, 0
555.698, 17, 418, 89, -91.38461, 0
555.7185, 17, 418, 89, -91.38461, 0
555.7388, 17, 418, 89, -91.38461, 0
555.7602, 17, 418, 90, -90.69231, 0
555.78, 16, 418, 90, -90.69231, 0
555.7963, 16, 418, 89, -91.38461, 0
555.8167, 17, 419, 89, -91.38461, 0
555.8375, 16, 419, 89, -91.38461, 0
555.8586, 17, 419, 89, -91.38461, 0
555.8783, 16, 419, 89, -91.38461, 0
555.8988, 17, 418, 89, -91.38461, 0
555.915, 17, 418, 88, -92.07692, 0
555.9355, 16, 418, 89, -91.38461, 0
555.956, 16, 418, 89, -91.38461, 0
555.9776, 16, 418, 89, -91.38461, 0
555.9971, 16, 418, 89, -91.38461, 0
556.0175, 17, 418, 89, -91.38461, 0
556.034, 17, 419, 89, -91.38461, 0
556.0547, 16, 418, 89, -91.38461, 0
556.0749, 16, 418, 89, -91.38461, 0
556.0972, 17, 418, 89, -91.38461, 0
556.1174, 17, 418, 89, -91.38461, 0
556.1343, 17, 418, 89, -91.38461, 0
556.1543, 16, 418, 89, -91.38461, 0
556.1751, 16, 419, 89, -91.38461, 0
556.1961, 16, 419, 89, -91.38461, 0
556.216, 16, 418, 89, -91.38461, 0
556.2362, 16, 418, 89, -91.38461, 0
556.2514, 16, 418, 89, -91.38461, 0
556.2711, 17, 418, 89, -91.38461, 0
556.2925, 17, 418, 89, -91.38461, 0
556.3119, 17, 419, 89, -91.38461, 0
556.3328, 17, 418, 89, -91.38461, 0
556.3537, 16, 418, 89, -91.38461, 0
556.3705, 16, 418, 89, -91.38461, 0
556.39, 17, 418, 89, -91.38461, 0
556.4111, 16, 418, 89, -91.38461, 0
556.4308, 16, 419, 89, -91.38461, 0
556.4512, 16, 418, 89, -91.38461, 0
556.4715, 16, 418, 89, -91.38461, 0
556.4882, 16, 418, 89, -91.38461, 0
556.5092, 16, 418, 89, -91.38461, 0
556.5289, 16, 418, 89, -91.38461, 0
556.5494, 17, 418, 89, -91.38461, 0
556.5698, 17, 418, 89, -91.38461, 0
556.5905, 17, 418, 89, -91.38461, 0
556.6074, 17, 418, 89, -91.38461, 0
556.6277, 17, 418, 89, -91.38461, 0
556.6478, 16, 418, 89, -91.38461, 0
556.6682, 16, 418, 90, -90.69231, 0
556.6885, 17, 418, 89, -91.38461, 0
556.7101, 16, 418, 89, -91.38461, 0
556.7264, 17, 418, 89, -91.38461, 0
556.746, 16, 418, 89, -91.38461, 0
556.7664, 17, 418, 89, -91.38461, 0
556.7869, 17, 418, 89, -91.38461, 0
556.8077, 16, 418, 89, -91.38461, 0
556.825, 17, 418, 89, -91.38461, 0
556.8444, 17, 418, 89, -91.38461, 0
556.8647, 16, 418, 89, -91.38461, 0
556.8853, 17, 418, 89, -91.38461, 0
556.9055, 17, 418, 89, -91.38461, 0
556.9272, 16, 418, 89, -91.38461, 0
556.9436, 16, 419, 89, -91.38461, 0
556.963, 16, 418, 89, -91.38461, 0
556.9836, 16, 419, 89, -91.38461, 0
557.0039, 17, 418, 89, -91.38461, 0
557.027, 17, 418, 89, -91.38461, 0
557.0474, 17, 418, 89, -91.38461, 0
557.064, 16, 418, 89, -91.38461, 0
557.0842, 17, 419, 89, -91.38461, 0
557.1072, 17, 419, 89, -91.38461, 0
557.1254, 16, 418, 89, -91.38461, 0
557.1464, 16, 418, 89, -91.38461, 0
557.1662, 17, 418, 89, -91.38461, 0
557.1833, 17, 418, 89, -91.38461, 0
557.2029, 16, 418, 89, -91.38461, 0
557.2244, 17, 419, 89, -91.38461, 0
557.2443, 17, 418, 89, -91.38461, 0
557.263, 16, 419, 89, -91.38461, 0
557.2835, 17, 418, 89, -91.38461, 0
557.2992, 17, 418, 89, -91.38461, 0
557.3199, 17, 418, 89, -91.38461, 0
557.3406, 17, 418, 89, -91.38461, 0
557.3617, 16, 418, 89, -91.38461, 0
557.3815, 16, 418, 89, -91.38461, 0
557.4018, 16, 418, 89, -91.38461, 0
557.418, 17, 418, 89, -91.38461, 0
557.438, 16, 418, 89, -91.38461, 0
557.4594, 17, 418, 89, -91.38461, 0
557.4791, 16, 418, 89, -91.38461, 0
557.4996, 16, 418, 89, -91.38461, 0
557.5167, 16, 418, 89, -91.38461, 0
557.5365, 17, 418, 89, -91.38461, 0
557.557, 16, 418, 88, -92.07692, 0
557.5776, 17, 418, 89, -91.38461, 0
557.5978, 17, 418, 89, -91.38461, 0
557.6185, 16, 418, 89, -91.38461, 0
557.6348, 16, 418, 89, -91.38461, 0
557.6552, 16, 418, 88, -92.07692, 0
557.6766, 16, 418, 88, -92.07692, 0
557.6962, 17, 418, 89, -91.38461, 0
557.7167, 17, 418, 89, -91.38461, 0
557.7379, 17, 418, 89, -91.38461, 0
557.7535, 16, 418, 89, -91.38461, 0
557.7743, 16, 418, 89, -91.38461, 0
557.7946, 17, 418, 89, -91.38461, 0
557.8151, 17, 418, 89, -91.38461, 0
557.8354, 17, 418, 89, -91.38461, 0
557.856, 17, 418, 89, -91.38461, 0
557.8726, 16, 418, 89, -91.38461, 0
557.894, 17, 419, 89, -91.38461, 0
557.9131, 17, 418, 89, -91.38461, 0
557.9338, 17, 418, 89, -91.38461, 0
557.9547, 16, 418, 89, -91.38461, 0
557.9756, 16, 418, 89, -91.38461, 0
557.9914, 17, 418, 88, -92.07692, 0
558.0115, 17, 419, 89, -91.38461, 0
558.0329, 17, 419, 89, -91.38461, 0
558.0529, 17, 418, 89, -91.38461, 0
558.0734, 17, 417, 89, -91.38461, 0
558.0942, 16, 418, 89, -91.38461, 0
558.1109, 17, 418, 89, -91.38461, 0
558.1328, 16, 418, 88, -92.07692, 0
558.153, 17, 418, 89, -91.38461, 0
558.1742, 16, 418, 89, -91.38461, 0
558.1948, 16, 418, 89, -91.38461, 0
558.2111, 17, 418, 89, -91.38461, 0
558.2309, 16, 418, 88, -92.07692, 0
558.2515, 17, 419, 89, -91.38461, 0
558.2715, 17, 418, 89, -91.38461, 0
558.2903, 16, 418, 89, -91.38461, 0
558.311, 16, 418, 89, -91.38461, 0
558.327, 16, 419, 89, -91.38461, 0
558.3474, 17, 418, 89, -91.38461, 0
558.3683, 16, 418, 89, -91.38461, 0
558.3884, 17, 418, 89, -91.38461, 0
558.4102, 16, 418, 89, -91.38461, 0
558.4294, 16, 419, 89, -91.38461, 0
558.446, 16, 418, 89, -91.38461, 0
558.4667, 17, 418, 89, -91.38461, 0
558.4868, 16, 419, 88, -92.07692, 0
558.5076, 17, 418, 89, -91.38461, 0
558.5283, 16, 418, 89, -91.38461, 0
558.5482, 16, 419, 89, -91.38461, 0
558.5646, 16, 419, 89, -91.38461, 0
558.5848, 16, 419, 89, -91.38461, 0
558.6061, 16, 419, 89, -91.38461, 0
558.6268, 16, 418, 89, -91.38461, 0
558.6464, 16, 418, 89, -91.38461, 0
558.6672, 17, 418, 89, -91.38461, 0
558.6833, 16, 418, 89, -91.38461, 0
558.7037, 16, 418, 89, -91.38461, 0
558.7243, 16, 418, 89, -91.38461, 0
558.7446, 17, 418, 89, -91.38461, 0
558.769, 17, 418, 89, -91.38461, 0
558.789, 16, 418, 89, -91.38461, 0
558.806, 17, 418, 89, -91.38461, 0
558.8284, 16, 419, 89, -91.38461, 0
558.8472, 16, 418, 89, -91.38461, 0
558.8669, 17, 418, 89, -91.38461, 0
558.8876, 16, 418, 89, -91.38461, 0
558.9081, 17, 418, 89, -91.38461, 0
558.9259, 16, 418, 89, -91.38461, 0
558.9451, 16, 419, 89, -91.38461, 0
558.9656, 16, 418, 89, -91.38461, 0
558.9846, 17, 419, 89, -91.38461, 0
559.0056, 16, 418, 89, -91.38461, 0
559.0217, 17, 418, 89, -91.38461, 0
559.042, 16, 418, 89, -91.38461, 0
559.0635, 17, 418, 89, -91.38461, 0
559.0826, 17, 418, 89, -91.38461, 0
559.1033, 17, 418, 88, -92.07692, 0
559.1241, 16, 418, 88, -92.07692, 0
559.1409, 17, 418, 89, -91.38461, 0
559.1593, 17, 418, 89, -91.38461, 0
559.1788, 16, 418, 89, -91.38461, 0
559.1993, 16, 419, 89, -91.38461, 0
559.2197, 16, 418, 89, -91.38461, 0
559.2406, 16, 418, 89, -91.38461, 0
559.2574, 17, 418, 89, -91.38461, 0
