UA-Ange: 0, ForearmStretched: 200, Forearm: 79, LeftArm? Yes
Time, EMG-Signal, Force-Value, Elbow-Angle, Transformed-Angle, MotorTarget
17.74055, 114, 442, 150, -37.19008, 180
17.74055, 109, 449, 157, -31.98347, 180
17.76055, 105, 440, 158, -31.23967, 180
17.78249, 94, 442, 158, -31.23967, 180
17.79517, 87, 442, 159, -30.49587, 180
17.80879, 79, 441, 160, -29.75207, 180
17.82412, 72, 442, 161, -29.00826, 180
17.8403, 68, 441, 161, -29.00826, 180
17.86846, 64, 441, 163, -27.52066, 180
17.87534, 60, 441, 163, -27.52066, 180
17.8891, 54, 441, 164, -26.77686, 180
17.90471, 52, 441, 162, -28.26446, 180
17.9171, 439, 185, 163, -27.52066, 120
17.9313, 116, 441, 155, -33.47107, 180
17.95288, 114, 442, 150, -37.19008, 180
17.97834, 109, 449, 157, -31.98347, 180
17.99201, 105, 440, 158, -31.23967, 180
18.01159, 94, 442, 158, -31.23967, 180
18.02453, 87, 442, 159, -30.49587, 180
18.04836, 79, 441, 160, -29.75207, 180
18.06417, 72, 442, 161, -29.00826, 180
18.08809, 68, 441, 161, -29.00826, 180
18.10057, 64, 441, 163, -27.52066, 180
18.11292, 60, 441, 163, -27.52066, 180
18.12954, 54, 441, 164, -26.77686, 180
18.1481, 52, 441, 162, -28.26446, 180
18.16148, 180, 697, 163, -27.52066, 40191
18.17984, 38, 442, 162, -28.26446, 180
18.19341, 34, 441, 163, -27.52066, 180
18.21227, 32, 441, 164, -26.77686, 180
18.22446, 31, 440, 168, -23.80165, 180
18.23976, 30, 440, 169, -23.05785, 180
18.25537, 27, 440, 169, -23.05785, 180
18.2706, 26, 440, 169, -23.05785, 180
18.28895, 25, 440, 168, -23.80165, 180
18.30436, 24, 440, 168, -23.80165, 180
18.31882, 25, 440, 168, -23.80165, 180
18.33548, 24, 440, 170, -22.31405, 180
18.34944, 23, 440, 171, -21.57025, 180
18.36688, 23, 441, 171, -21.57025, 180
18.38012, 23, 440, 173, -20.08265, 180
18.39562, 23, 439, 174, -19.33884, 180
18.40862, 25, 439, 176, -17.85124, 180
18.42202, 24, 439, 175, -18.59504, 180
18.43926, 22, 439, 175, -18.59504, 180
18.45371, 23, 439, 175, -18.59504, 180
18.46899, 23, 438, 175, -18.59504, 180
18.48116, 23, 438, 175, -18.59504, 180
18.49741, 23, 439, 175, -18.59504, 180
18.50904, 23, 438, 175, -18.59504, 180
18.51944, 22, 438, 175, -18.59504, 180
18.53519, 24, 438, 174, -19.33884, 180
18.54867, 24, 439, 172, -20.82645, 180
18.56075, 24, 440, 171, -21.57025, 180
18.57316, 24, 441, 171, -21.57025, 180
18.58984, 22, 441, 171, -21.57025, 180
18.60145, 22, 442, 171, -21.57025, 180
18.62213, 21, 442, 173, -20.08265, 180
18.63498, 24, 442, 173, -20.08265, 180
18.65427, 22, 442, 174, -19.33884, 180
18.66795, 23, 441, 177, -17.10744, 180
18.68241, 25, 442, 176, -17.85124, 180
18.69685, 29, 441, 176, -17.85124, 180
18.71383, 29, 440, 177, -17.10744, 180
18.73092, 30, 440, 176, -17.85124, 180
18.74972, 33, 442, 176, -17.85124, 180
18.77192, 35, 441, 171, -21.57025, 180
18.78819, 37, 442, 177, -17.10744, 180
18.82327, 38, 442, 178, -16.36364, 180
18.83703, 43, 442, 178, -16.36364, 180
18.86971, 46, 442, 179, -15.61983, 180
18.87713, 50, 442, 180, -14.87603, 180
18.89192, 55, 442, 181, -14.13223, 180
18.92088, 60, 441, 184, -11.90083, 180
18.92833, 66, 441, 183, -12.64463, 180
18.94391, 66, 442, 183, -12.64463, 180
18.976, 68, 441, 184, -11.90083, 180
18.99016, 70, 442, 184, -11.90083, 180
19.00587, 72, 441, 184, -11.90083, 180
19.03127, 75, 441, 184, -11.90083, 180
19.04008, 75, 441, 184, -11.90083, 180
19.06305, 77, 442, 184, -11.90083, 180
19.07312, 76, 442, 184, -11.90083, 180
19.10497, 77, 442, 184, -11.90083, 180
19.11959, 78, 441, 184, -11.90083, 180
19.13438, 77, 442, 184, -11.90083, 180
19.14869, 79, 441, 184, -11.90083, 180
19.16413, 81, 441, 184, -11.90083, 180
19.17967, 79, 441, 184, -11.90083, 180
19.19544, 78, 442, 184, -11.90083, 180
19.21807, 75, 442, 184, -11.90083, 180
19.2334, 73, 442, 184, -11.90083, 180
19.24726, 74, 442, 184, -11.90083, 180
19.26218, 78, 442, 184, -11.90083, 180
19.27812, 75, 442, 184, -11.90083, 180
19.2908, 75, 442, 184, -11.90083, 180
19.30401, 77, 443, 184, -11.90083, 180
19.326, 78, 442, 184, -11.90083, 180
19.34138, 79, 442, 184, -11.90083, 180
19.35748, 82, 443, 184, -11.90083, 180
19.3727, 82, 443, 184, -11.90083, 180
19.38739, 79, 443, 184, -11.90083, 180
19.40265, 82, 443, 184, -11.90083, 180
19.42015, 85, 443, 184, -11.90083, 180
19.44718, 86, 443, 184, -11.90083, 180
19.4604, 84, 443, 184, -11.90083, 180
19.47514, 86, 443, 184, -11.90083, 180
19.48972, 88, 443, 184, -11.90083, 180
19.50478, 89, 443, 184, -11.90083, 180
19.51949, 89, 443, 184, -11.90083, 180
19.54034, 86, 443, 184, -11.90083, 180
19.55964, 84, 443, 184, -11.90083, 180
19.57674, 85, 443, 184, -11.90083, 180
19.59004, 81, 444, 184, -11.90083, 180
19.60797, 78, 444, 184, -11.90083, 180
19.62225, 79, 444, 184, -11.90083, 180
19.63787, 79, 444, 184, -11.90083, 180
19.65283, 77, 444, 184, -11.90083, 180
19.67221, 74, 444, 184, -11.90083, 180
19.68778, 74, 443, 184, -11.90083, 180
19.70187, 71, 444, 184, -11.90083, 180
19.71633, 68, 444, 183, -12.64463, 180
19.73245, 67, 444, 184, -11.90083, 180
19.74895, 66, 444, 184, -11.90083, 180
19.7643, 67, 444, 184, -11.90083, 180
19.78356, 64, 444, 184, -11.90083, 180
19.79758, 63, 444, 184, -11.90083, 180
19.81302, 62, 444, 184, -11.90083, 180
19.83005, 63, 445, 183, -12.64463, 180
19.84595, 61, 444, 183, -12.64463, 180
19.86147, 61, 444, 184, -11.90083, 180
19.87736, 62, 444, 184, -11.90083, 180
19.89608, 62, 444, 184, -11.90083, 180
19.91209, 63, 445, 183, -12.64463, 180
19.92812, 65, 444, 183, -12.64463, 180
19.94306, 67, 444, 183, -12.64463, 180
19.96465, 71, 444, 184, -11.90083, 180
19.97949, 68, 445, 184, -11.90083, 180
19.99418, 67, 445, 184, -11.90083, 180
20.01258, 68, 445, 184, -11.90083, 180
20.02505, 68, 444, 184, -11.90083, 180
20.05486, 67, 444, 184, -11.90083, 180
20.06545, 66, 444, 184, -11.90083, 180
20.07926, 67, 444, 184, -11.90083, 180
20.09713, 69, 444, 184, -11.90083, 180
20.10909, 69, 444, 184, -11.90083, 180
20.12832, 73, 445, 184, -11.90083, 180
20.14594, 71, 445, 184, -11.90083, 180
20.16146, 72, 445, 184, -11.90083, 180
20.17678, 72, 444, 184, -11.90083, 180
20.19424, 70, 445, 184, -11.90083, 180
20.21082, 72, 445, 184, -11.90083, 180
20.22802, 73, 444, 183, -12.64463, 180
20.24336, 72, 445, 183, -12.64463, 180
20.25943, 72, 445, 183, -12.64463, 180
20.2767, 73, 444, 184, -11.90083, 180
20.30755, 77, 445, 184, -11.90083, 180
20.31558, 75, 445, 184, -11.90083, 180
20.33001, 75, 444, 183, -12.64463, 180
20.34611, 75, 445, 183, -12.64463, 180
20.35957, 75, 445, 183, -12.64463, 180
20.37619, 77, 446, 184, -11.90083, 180
20.39237, 78, 445, 184, -11.90083, 180
20.40678, 78, 445, 184, -11.90083, 180
20.42593, 77, 445, 184, -11.90083, 180
20.44124, 79, 445, 183, -12.64463, 180
20.46059, 81, 445, 183, -12.64463, 180
20.47838, 80, 445, 184, -11.90083, 180
20.49225, 84, 445, 184, -11.90083, 180
20.50729, 82, 445, 184, -11.90083, 180
20.5236, 85, 445, 183, -12.64463, 180
20.53974, 86, 446, 183, -12.64463, 180
20.55496, 88, 446, 184, -11.90083, 180
20.56952, 88, 445, 184, -11.90083, 180
20.58385, 89, 445, 184, -11.90083, 180
20.59742, 89, 445, 184, -11.90083, 180
20.61205, 90, 445, 184, -11.90083, 180
20.62726, 92, 445, 183, -12.64463, 180
20.64784, 91, 445, 183, -12.64463, 180
20.66926, 89, 445, 184, -11.90083, 180
20.68787, 89, 445, 184, -11.90083, 180
20.70793, 87, 445, 184, -11.90083, 180
20.7295, 86, 445, 183, -12.64463, 180
20.74967, 89, 445, 184, -11.90083, 180
20.76506, 89, 445, 183, -12.64463, 180
20.78545, 90, 445, 183, -12.64463, 180
20.8071, 89, 445, 184, -11.90083, 180
20.82723, 88, 444, 184, -11.90083, 180
20.84753, 87, 445, 183, -12.64463, 180
20.86878, 84, 445, 183, -12.64463, 180
20.88572, 83, 445, 183, -12.64463, 180
20.90487, 83, 444, 183, -12.64463, 180
20.92542, 86, 445, 183, -12.64463, 180
20.94587, 90, 444, 183, -12.64463, 180
20.96498, 88, 445, 183, -12.64463, 180
20.98535, 88, 444, 183, -12.64463, 180
21.00261, 89, 444, 183, -12.64463, 180
21.02189, 88, 444, 183, -12.64463, 180
21.04399, 85, 444, 183, -12.64463, 180
21.0636, 83, 445, 183, -12.64463, 180
21.08438, 80, 444, 183, -12.64463, 180
21.1058, 81, 444, 184, -11.90083, 180
21.12502, 81, 444, 183, -12.64463, 180
21.1412, 83, 444, 183, -12.64463, 180
21.16279, 84, 444, 183, -12.64463, 180
21.18258, 88, 444, 183, -12.64463, 180
21.20284, 88, 444, 183, -12.64463, 180
21.22293, 89, 444, 184, -11.90083, 180
21.24383, 90, 444, 183, -12.64463, 180
21.26039, 92, 444, 183, -12.64463, 180
21.28042, 92, 445, 183, -12.64463, 180
21.30117, 92, 444, 183, -12.64463, 180
21.32711, 93, 445, 183, -12.64463, 180
21.34422, 94, 444, 183, -12.64463, 180
21.36302, 99, 445, 183, -12.64463, 180
21.37989, 98, 444, 183, -12.64463, 180
21.40274, 100, 444, 183, -12.64463, 180
21.42123, 99, 445, 183, -12.64463, 180
21.43963, 102, 444, 183, -12.64463, 180
21.46172, 100, 445, 183, -12.64463, 180
21.48332, 103, 444, 183, -12.64463, 180
21.49946, 100, 444, 183, -12.64463, 180
21.52214, 103, 444, 183, -12.64463, 180
21.54088, 104, 444, 183, -12.64463, 180
21.55975, 102, 445, 183, -12.64463, 180
21.58028, 103, 445, 183, -12.64463, 180
21.60229, 98, 445, 183, -12.64463, 180
21.62654, 97, 444, 183, -12.64463, 180
21.64011, 97, 444, 183, -12.64463, 180
21.66043, 98, 444, 183, -12.64463, 180
21.6821, 99, 444, 183, -12.64463, 180
21.70203, 101, 444, 183, -12.64463, 180
21.72495, 102, 444, 183, -12.64463, 180
21.74276, 103, 444, 183, -12.64463, 180
21.75745, 102, 444, 183, -12.64463, 180
21.77927, 101, 444, 183, -12.64463, 180
21.80275, 100, 444, 183, -12.64463, 180
21.8204, 97, 444, 183, -12.64463, 180
21.84038, 94, 444, 184, -11.90083, 180
21.85941, 93, 443, 183, -12.64463, 180
21.87788, 92, 444, 183, -12.64463, 180
21.8967, 91, 444, 183, -12.64463, 180
21.91552, 92, 443, 183, -12.64463, 180
21.93623, 92, 443, 183, -12.64463, 180
21.95768, 92, 444, 183, -12.64463, 180
21.97879, 91, 444, 183, -12.64463, 180
21.99828, 93, 444, 183, -12.64463, 180
22.01566, 98, 444, 183, -12.64463, 180
22.03451, 94, 444, 183, -12.64463, 180
22.0554, 93, 444, 183, -12.64463, 180
22.07533, 94, 444, 183, -12.64463, 180
22.09631, 95, 444, 183, -12.64463, 180
22.11676, 99, 444, 183, -12.64463, 180
22.13269, 101, 444, 183, -12.64463, 180
22.1527, 101, 444, 183, -12.64463, 180
22.17471, 103, 444, 183, -12.64463, 180
22.19532, 106, 445, 183, -12.64463, 180
22.2141, 106, 444, 183, -12.64463, 180
22.23459, 109, 444, 183, -12.64463, 180
22.25211, 111, 444, 183, -12.64463, 180
22.27227, 114, 444, 183, -12.64463, 180
22.29291, 117, 444, 183, -12.64463, 180
22.31397, 118, 443, 183, -12.64463, 180
22.33348, 117, 443, 183, -12.64463, 180
22.35427, 114, 444, 183, -12.64463, 180
22.37179, 113, 444, 183, -12.64463, 180
22.39577, 113, 444, 183, -12.64463, 180
22.41322, 109, 444, 183, -12.64463, 180
22.43416, 106, 444, 183, -12.64463, 180
22.45482, 105, 444, 183, -12.64463, 180
22.4732, 104, 443, 183, -12.64463, 180
22.49373, 100, 444, 183, -12.64463, 180
22.52047, 101, 444, 183, -12.64463, 180
22.53243, 104, 444, 183, -12.64463, 180
22.55151, 109, 444, 183, -12.64463, 180
22.57213, 105, 444, 183, -12.64463, 180
22.59363, 105, 444, 183, -12.64463, 180
22.61385, 103, 444, 183, -12.64463, 180
22.6305, 104, 444, 183, -12.64463, 180
22.64946, 99, 444, 183, -12.64463, 180
22.671, 99, 444, 183, -12.64463, 180
22.69074, 97, 444, 183, -12.64463, 180
22.71137, 97, 445, 183, -12.64463, 180
22.73201, 101, 444, 183, -12.64463, 180
22.74821, 98, 445, 183, -12.64463, 180
22.76829, 100, 445, 183, -12.64463, 180
22.78876, 98, 445, 183, -12.64463, 180
22.80978, 98, 445, 183, -12.64463, 180
22.83294, 98, 445, 183, -12.64463, 180
22.84957, 96, 445, 183, -12.64463, 180
22.86992, 95, 445, 183, -12.64463, 180
22.8864, 96, 445, 183, -12.64463, 180
22.9075, 93, 445, 183, -12.64463, 180
22.92812, 93, 445, 183, -12.64463, 180
22.94802, 92, 445, 183, -12.64463, 180
22.96921, 92, 445, 183, -12.64463, 180
22.98925, 92, 445, 183, -12.64463, 180
23.00582, 93, 444, 183, -12.64463, 180
23.02579, 93, 444, 183, -12.64463, 180
23.04696, 90, 445, 183, -12.64463, 180
23.06625, 92, 445, 183, -12.64463, 180
23.08723, 89, 444, 183, -12.64463, 180
23.10733, 90, 444, 183, -12.64463, 180
23.12352, 87, 445, 183, -12.64463, 180
23.14628, 86, 444, 183, -12.64463, 180
23.16644, 84, 445, 183, -12.64463, 180
23.18564, 84, 444, 183, -12.64463, 180
23.20563, 84, 444, 183, -12.64463, 180
23.22781, 82, 445, 183, -12.64463, 180
23.24391, 82, 445, 183, -12.64463, 180
23.26479, 81, 445, 183, -12.64463, 180
23.28288, 78, 445, 183, -12.64463, 180
23.3037, 80, 445, 183, -12.64463, 180
23.32423, 77, 445, 183, -12.64463, 180
23.34575, 79, 445, 183, -12.64463, 180
23.36552, 79, 445, 183, -12.64463, 180
23.38197, 79, 445, 183, -12.64463, 180
23.40173, 78, 445, 183, -12.64463, 180
23.42268, 78, 445, 183, -12.64463, 180
23.44465, 75, 445, 183, -12.64463, 180
23.46716, 75, 445, 183, -12.64463, 180
23.4883, 75, 445, 183, -12.64463, 180
23.50321, 73, 445, 183, -12.64463, 180
23.52353, 73, 444, 183, -12.64463, 180
23.54385, 74, 445, 183, -12.64463, 180
23.56518, 75, 445, 183, -12.64463, 180
23.58392, 75, 445, 183, -12.64463, 180
23.60403, 73, 445, 183, -12.64463, 180
23.62201, 72, 445, 183, -12.64463, 180
23.64426, 72, 445, 183, -12.64463, 180
23.66356, 71, 445, 183, -12.64463, 180
23.68346, 72, 445, 183, -12.64463, 180
23.70446, 73, 445, 183, -12.64463, 180
23.72227, 69, 445, 183, -12.64463, 180
23.74174, 69, 445, 183, -12.64463, 180
23.75895, 69, 445, 183, -12.64463, 180
23.78014, 71, 445, 183, -12.64463, 180
23.79997, 69, 445, 183, -12.64463, 180
23.82024, 67, 445, 183, -12.64463, 180
23.84057, 65, 445, 183, -12.64463, 180
23.86316, 63, 445, 183, -12.64463, 180
23.88405, 63, 445, 183, -12.64463, 180
23.8997, 60, 445, 183, -12.64463, 180
23.91857, 59, 445, 183, -12.64463, 180
23.93971, 57, 445, 183, -12.64463, 180
23.95947, 57, 445, 183, -12.64463, 180
23.98035, 54, 445, 183, -12.64463, 180
23.9968, 52, 445, 183, -12.64463, 180
24.01654, 50, 445, 183, -12.64463, 180
24.03715, 48, 445, 183, -12.64463, 180
24.05732, 47, 444, 183, -12.64463, 180
24.0793, 44, 444, 183, -12.64463, 180
24.0996, 43, 444, 183, -12.64463, 180
24.11806, 42, 444, 183, -12.64463, 180
24.1351, 39, 445, 183, -12.64463, 180
24.15567, 38, 445, 183, -12.64463, 180
24.17825, 36, 444, 183, -12.64463, 180
24.19954, 35, 444, 183, -12.64463, 180
24.22054, 35, 444, 183, -12.64463, 180
24.24118, 35, 444, 183, -12.64463, 180
24.25763, 34, 444, 183, -12.64463, 180
24.27649, 34, 444, 183, -12.64463, 180
24.29729, 36, 444, 183, -12.64463, 180
24.31836, 35, 444, 183, -12.64463, 180
24.33617, 35, 444, 183, -12.64463, 180
24.35623, 36, 444, 183, -12.64463, 180
24.37225, 36, 444, 183, -12.64463, 180
24.39436, 36, 444, 183, -12.64463, 180
24.4137, 37, 444, 183, -12.64463, 180
24.43449, 37, 444, 183, -12.64463, 180
24.45438, 38, 444, 183, -12.64463, 180
24.47433, 36, 444, 183, -12.64463, 180
24.49245, 40, 444, 183, -12.64463, 180
24.51378, 39, 444, 183, -12.64463, 180
24.53773, 39, 444, 183, -12.64463, 180
24.55501, 42, 444, 183, -12.64463, 180
24.57602, 42, 444, 183, -12.64463, 180
24.5957, 41, 444, 183, -12.64463, 180
24.61695, 40, 444, 183, -12.64463, 180
24.63304, 40, 444, 183, -12.64463, 180
24.65531, 43, 444, 183, -12.64463, 180
24.6727, 42, 445, 183, -12.64463, 180
24.69472, 43, 444, 183, -12.64463, 180
24.71463, 43, 444, 183, -12.64463, 180
24.73532, 44, 444, 183, -12.64463, 180
24.75297, 43, 444, 183, -12.64463, 180
24.77141, 43, 444, 183, -12.64463, 180
24.79263, 46, 444, 183, -12.64463, 180
24.81222, 47, 444, 183, -12.64463, 180
24.83276, 47, 444, 183, -12.64463, 180
24.85265, 47, 444, 183, -12.64463, 180
24.86879, 48, 444, 183, -12.64463, 180
24.88887, 49, 444, 183, -12.64463, 180
24.91041, 49, 444, 183, -12.64463, 180
24.93237, 48, 443, 183, -12.64463, 180
24.95089, 49, 443, 183, -12.64463, 180
24.97095, 47, 444, 183, -12.64463, 180
24.99196, 47, 444, 183, -12.64463, 180
25.00851, 45, 443, 183, -12.64463, 180
25.02969, 46, 443, 183, -12.64463, 180
25.0489, 47, 443, 183, -12.64463, 180
25.06931, 49, 443, 183, -12.64463, 180
25.0891, 51, 443, 183, -12.64463, 180
25.11002, 53, 443, 183, -12.64463, 180
25.12749, 52, 444, 183, -12.64463, 180
25.14785, 55, 444, 183, -12.64463, 180
25.1706, 55, 444, 183, -12.64463, 180
25.19011, 57, 444, 183, -12.64463, 180
25.20998, 58, 444, 183, -12.64463, 180
25.23054, 56, 444, 183, -12.64463, 180
25.24752, 56, 444, 183, -12.64463, 180
25.26769, 56, 443, 183, -12.64463, 180
25.28589, 57, 443, 183, -12.64463, 180
25.3063, 52, 442, 183, -12.64463, 180
25.32731, 45, 441, 183, -12.64463, 180
25.34782, 38, 441, 183, -12.64463, 180
25.36431, 38, 440, 183, -12.64463, 180
25.38541, 45, 439, 180, -14.87603, 180
25.40506, 58, 439, 177, -17.10744, 180
25.42492, 71, 439, 175, -18.59504, 180
25.44613, 87, 437, 172, -20.82645, 180
25.46656, 92, 439, 170, -22.31405, 180
25.4871, 91, 439, 169, -23.05785, 180
25.50329, 90, 440, 169, -23.05785, 180
25.52458, 87, 441, 170, -22.31405, 180
25.54427, 77, 444, 167, -24.54545, 180
25.5646, 65, 441, 178, -16.36364, 180
25.58586, 61, 442, 180, -14.87603, 180
25.60527, 52, 441, 182, -13.38843, 180
25.62156, 53, 443, 184, -11.90083, 180
25.64281, 59, 442, 187, -9.669421, 180
25.66344, 72, 442, 191, -6.694215, 180
25.68372, 95, 442, 195, -3.719008, 180
25.70449, 114, 442, 196, -2.975207, 180
25.72391, 143, 442, 198, -1.487603, 180
25.74572, 173, 442, 194, -4.46281, 180
25.76201, 207, 442, 202, 1.487603, 180
25.78117, 238, 443, 197, -2.231405, 180
25.80268, 273, 441, 212, 8.92562, 180
25.82205, 301, 439, 218, 13.38843, 0
25.84407, 284, 452, 162, -28.26446, 0
25.86545, 323, 439, 205, 3.719008, 0
25.88034, 324, 442, 192, -5.950413, 0
25.90067, 326, 439, 182, -13.38843, 0
25.92039, 324, 435, 185, -11.15702, 0
25.94416, 314, 436, 181, -14.13223, 0
25.96739, 303, 432, 183, -12.64463, 0
25.9819, 288, 429, 191, -6.694215, 0
26.00146, 268, 429, 193, -5.206612, 0
26.01996, 245, 428, 193, -5.206612, 0
26.04022, 222, 426, 193, -5.206612, 0
26.06104, 192, 426, 196, -2.975207, 0
26.08135, 161, 426, 196, -2.975207, 0
26.1023, 134, 424, 197, -2.231405, 0
26.11885, 112, 425, 198, -1.487603, 180
26.13971, 90, 426, 195, -3.719008, 180
26.16042, 68, 440, 176, -17.85124, 180
26.17917, 56, 442, 170, -22.31405, 180
26.19884, 46, 440, 168, -23.80165, 180
26.2213, 43, 444, 170, -22.31405, 180
26.23584, 49, 445, 180, -14.87603, 180
26.25638, 58, 443, 192, -5.950413, 180
26.27704, 69, 442, 199, -0.7438017, 180
26.29901, 77, 442, 206, 4.46281, 180
26.32029, 83, 441, 211, 8.181818, 180
26.33976, 89, 439, 219, 14.13223, 180
26.3604, 88, 437, 224, 17.85124, 180
26.37783, 81, 437, 226, 19.33884, 180
26.39725, 74, 437, 225, 18.59504, 180
26.41762, 64, 438, 225, 18.59504, 180
26.43959, 55, 438, 225, 18.59504, 180
26.45841, 47, 437, 227, 20.08265, 180
26.48225, 41, 438, 226, 19.33884, 180
26.4964, 36, 438, 227, 20.08265, 180
26.51395, 43, 434, 240, 29.75207, 180
26.53482, 44, 435, 240, 29.75207, 180
26.55557, 43, 434, 240, 29.75207, 180
26.57548, 55, 435, 240, 29.75207, 180
26.59641, 63, 434, 240, 29.75207, 180
26.61257, 67, 437, 227, 20.08265, 180
26.63359, 76, 436, 227, 20.08265, 180
26.66058, 89, 436, 227, 20.08265, 180
26.67359, 100, 436, 227, 20.08265, 180
26.69776, 110, 434, 227, 20.08265, 180
26.71534, 122, 432, 227, 20.08265, 180
26.73559, 138, 429, 226, 19.33884, 180
26.75144, 152, 423, 223, 17.10744, 180
26.77201, 165, 415, 216, 11.90083, 180
26.79362, 173, 412, 187, -9.669421, 180
26.81283, 172, 448, 163, -27.52066, 180
26.83322, 177, 459, 163, -27.52066, 180
26.85581, 187, 463, 164, -26.77686, 180
26.87121, 196, 471, 166, -25.28926, 180
26.89068, 207, 483, 185, -11.15702, 180
26.91207, 223, 462, 227, 20.08265, 180
26.93205, 249, 438, 227, 20.08265, 180
26.95219, 259, 438, 226, 19.33884, 180
26.97291, 266, 439, 227, 20.08265, 0
26.98913, 273, 438, 227, 20.08265, 0
27.00993, 245, 452, 162, -28.26446, 0
27.03061, 265, 440, 196, -2.975207, 0
27.05072, 264, 440, 185, -11.15702, 0
27.0714, 267, 437, 180, -14.87603, 0
27.09291, 269, 441, 183, -12.64463, 0
27.10859, 283, 432, 182, -13.38843, 0
27.12915, 300, 430, 185, -11.15702, 0
27.14866, 321, 429, 187, -9.669421, 0
27.16902, 344, 428, 189, -8.181818, 0
27.18955, 367, 428, 190, -7.438016, 0
27.21102, 396, 426, 191, -6.694215, 0
27.22828, 424, 426, 192, -5.950413, 0
27.25022, 453, 425, 193, -5.206612, 0
27.26941, 476, 424, 193, -5.206612, 0
27.28932, 497, 423, 189, -8.181818, 0
27.31187, 515, 422, 196, -2.975207, 0
27.33111, 532, 422, 199, -0.7438017, 0
27.35085, 538, 422, 200, 0, 0
27.36795, 535, 422, 200, 0, 0
27.38888, 526, 422, 201, 0.7438017, 0
27.40961, 518, 422, 200, 0, 0
27.43017, 505, 422, 201, 0.7438017, 0
27.44975, 488, 422, 200, 0, 0
27.46952, 472, 422, 200, 0, 0
27.48643, 454, 422, 200, 0, 0
27.50629, 433, 422, 200, 0, 0
27.52924, 413, 422, 200, 0, 0
27.54954, 392, 423, 200, 0, 0
27.56789, 372, 422, 200, 0, 0
27.58888, 349, 422, 200, 0, 0
27.60763, 323, 422, 200, 0, 0
27.62434, 304, 422, 200, 0, 0
27.64498, 280, 422, 200, 0, 0
27.66503, 253, 423, 200, 0, 0
27.68687, 231, 422, 200, 0, 0
27.70765, 212, 422, 200, 0, 0
27.73061, 191, 422, 200, 0, 0
27.74577, 169, 422, 200, 0, 0
27.76471, 149, 423, 200, 0, 0
27.78494, 132, 423, 200, 0, 180
27.80521, 109, 429, 176, -17.85124, 180
27.82601, 91, 435, 170, -22.31405, 180
27.84726, 71, 439, 167, -24.54545, 180
27.865, 63, 440, 168, -23.80165, 180
27.88364, 71, 444, 173, -20.08265, 180
27.90241, 88, 450, 186, -10.41322, 180
27.9243, 112, 444, 196, -2.975207, 180
27.94561, 137, 445, 205, 3.719008, 180
27.96391, 159, 443, 215, 11.15702, 180
27.97997, 172, 445, 217, 12.64463, 180
28.00053, 184, 448, 216, 11.90083, 180
28.02238, 195, 450, 216, 11.90083, 180
28.04202, 209, 453, 216, 11.90083, 180
28.06428, 230, 455, 217, 12.64463, 180
28.08429, 256, 456, 219, 14.13223, 180
28.10027, 286, 458, 220, 14.87603, 0
28.11919, 284, 468, 186, -10.41322, 0
28.14104, 289, 469, 155, -33.47107, 0
28.16637, 298, 465, 149, -37.93388, 0
28.18089, 296, 457, 146, -40.16529, 0
28.20142, 279, 455, 137, -46.8595, 0
28.2217, 248, 450, 131, -51.32232, 0
28.23842, 201, 447, 125, -55.78513, 0
28.25932, 156, 443, 122, -58.01653, 0
28.27967, 128, 440, 123, -57.27273, 0
28.2995, 119, 435, 129, -52.80992, 180
28.31989, 136, 421, 186, -10.41322, 180
28.34026, 129, 437, 149, -37.93388, 180
28.35811, 123, 443, 144, -41.65289, 180
28.37989, 107, 445, 150, -37.19008, 180
28.39836, 89, 447, 159, -30.49587, 180
28.41853, 97, 451, 160, -29.75207, 180
28.439, 108, 455, 160, -29.75207, 180
28.45947, 125, 459, 159, -30.49587, 180
28.47797, 155, 460, 162, -28.26446, 180
28.49624, 196, 461, 163, -27.52066, 180
28.51718, 232, 459, 163, -27.52066, 180
28.53863, 272, 459, 168, -23.80165, 180
28.55815, 310, 459, 169, -23.05785, 0
28.57995, 315, 471, 132, -50.57851, 0
28.59578, 316, 475, 102, -72.89256, 0
28.61508, 320, 463, 94, -78.84297, 0
28.63544, 309, 455, 88, -83.30579, 0
28.65754, 288, 448, 82, -87.76859, 0
28.67801, 266, 444, 79, -90, 0
28.6988, 238, 437, 81, -88.5124, 0
28.71479, 216, 436, 88, -83.30579, 0
28.73482, 189, 431, 89, -82.56198, 0
28.75496, 169, 431, 87, -84.04958, 0
28.77577, 146, 436, 93, -79.58678, 0
28.79812, 136, 429, 91, -81.07438, 180
28.81582, 143, 419, 120, -59.50413, 180
28.83234, 127, 434, 88, -83.30579, 180
28.8527, 132, 447, 84, -86.28099, 180
28.8731, 150, 447, 87, -84.04958, 180
28.89502, 169, 448, 92, -80.33058, 180
28.91391, 197, 447, 101, -73.63636, 180
28.93443, 228, 447, 107, -69.17355, 180
28.95073, 247, 445, 109, -67.68595, 180
28.97128, 272, 444, 110, -66.94215, 180
28.99173, 295, 443, 111, -66.19835, 0
29.01329, 316, 444, 110, -66.94215, 0
29.03253, 298, 467, 63, -101.9008, 0
29.05556, 319, 446, 83, -87.0248, 0
29.0736, 318, 438, 76, -92.23141, 0
29.09041, 315, 431, 81, -88.5124, 0
29.11137, 302, 427, 85, -85.53719, 0
29.13091, 284, 431, 92, -80.33058, 0
29.15144, 271, 423, 94, -78.84297, 0
29.17188, 258, 422, 97, -76.61157, 0
29.19469, 244, 423, 98, -75.86777, 0
29.21098, 228, 423, 98, -75.86777, 0
29.22965, 213, 424, 98, -75.86777, 0
29.24972, 202, 424, 98, -75.86777, 0
29.27016, 190, 424, 98, -75.86777, 0
29.29042, 178, 424, 96, -77.35537, 0
29.31219, 172, 423, 97, -76.61157, 0
29.32967, 164, 424, 97, -76.61157, 0
29.34784, 157, 423, 98, -75.86777, 0
29.36993, 152, 423, 98, -75.86777, 0
29.38927, 149, 422, 98, -75.86777, 0
29.40981, 141, 423, 98, -75.86777, 180
29.43078, 131, 430, 81, -88.5124, 180
29.44682, 127, 437, 73, -94.46281, 180
29.46719, 130, 443, 74, -93.71901, 180
29.48771, 141, 447, 81, -88.5124, 180
29.5076, 157, 448, 90, -81.81818, 180
29.52996, 185, 448, 97, -76.61157, 180
29.5498, 207, 447, 104, -71.40496, 180
29.56678, 235, 445, 109, -67.68595, 180
29.58625, 251, 445, 111, -66.19835, 180
29.60599, 269, 444, 111, -66.19835, 0
29.62754, 267, 446, 95, -78.09917, 0
29.6482, 265, 441, 83, -87.0248, 0
29.66796, 261, 439, 76, -92.23141, 0
29.6842, 254, 434, 76, -92.23141, 0
29.7058, 242, 426, 81, -88.5124, 0
29.72475, 228, 424, 88, -83.30579, 0
29.74582, 210, 421, 94, -78.84297, 0
29.76579, 193, 421, 99, -75.12397, 0
29.78659, 167, 420, 99, -75.12397, 0
29.80253, 142, 420, 99, -75.12397, 0
29.82293, 120, 419, 99, -75.12397, 180
29.84474, 93, 424, 84, -86.28099, 180
29.86575, 73, 433, 72, -95.20661, 180
29.88516, 59, 439, 65, -100.4132, 180
29.90493, 53, 439, 70, -96.69421, 180
29.9228, 53, 444, 79, -90, 180
29.94201, 50, 445, 85, -85.53719, 180
29.96364, 48, 444, 96, -77.35537, 180
29.98294, 46, 442, 100, -74.38017, 180
30.00343, 39, 442, 103, -72.14876, 180
30.02374, 34, 448, 106, -69.91736, 180
30.04075, 32, 445, 107, -69.17355, 180
30.062, 30, 441, 112, -65.45454, 180
30.08231, 31, 440, 109, -67.68595, 180
30.10428, 37, 440, 115, -63.22314, 180
30.12225, 34, 442, 118, -60.99174, 180
30.14259, 31, 444, 121, -58.76033, 180
30.16598, 28, 443, 126, -55.04132, 180
30.18036, 26, 442, 130, -52.06612, 180
30.20088, 28, 442, 133, -49.83471, 180
30.22057, 26, 443, 138, -46.1157, 180
30.24083, 25, 442, 140, -44.6281, 180
30.26237, 24, 442, 141, -43.8843, 180
30.28293, 27, 442, 143, -42.39669, 180
30.29865, 22, 442, 146, -40.16529, 180
30.31865, 22, 440, 144, -41.65289, 180
30.33906, 26, 443, 148, -38.67768, 180
30.36085, 27, 442, 149, -37.93388, 180
30.38056, 31, 442, 152, -35.70248, 180
30.40088, 39, 441, 155, -33.47107, 180
30.41763, 46, 440, 156, -32.72727, 180
30.43795, 48, 439, 157, -31.98347, 180
30.45793, 53, 439, 157, -31.98347, 180
30.47944, 62, 438, 158, -31.23967, 180
30.50055, 61, 438, 157, -31.98347, 180
30.51944, 63, 439, 154, -34.21487, 180
30.53976, 67, 440, 154, -34.21487, 180
30.55709, 75, 439, 156, -32.72727, 180
30.57766, 72, 440, 155, -33.47107, 180
30.59842, 80, 440, 155, -33.47107, 180
30.61806, 88, 440, 156, -32.72727, 180
30.63813, 96, 440, 156, -32.72727, 180
30.6594, 99, 440, 158, -31.23967, 180
30.67563, 105, 441, 159, -30.49587, 180
30.69587, 115, 441, 159, -30.49587, 180
30.71709, 125, 442, 160, -29.75207, 180
30.73762, 132, 442, 161, -29.00826, 180
30.75735, 148, 442, 161, -29.00826, 180
30.7783, 160, 444, 161, -29.00826, 180
30.79464, 181, 445, 161, -29.00826, 180
30.81423, 200, 446, 161, -29.00826, 180
30.83467, 223, 447, 160, -29.75207, 180
30.85506, 245, 448, 160, -29.75207, 180
30.87689, 271, 450, 160, -29.75207, 180
30.89754, 292, 450, 160, -29.75207, 0
30.9147, 300, 471, 130, -52.06612, 0
30.93345, 299, 456, 102, -72.89256, 0
30.95339, 300, 456, 117, -61.73554, 0
30.97379, 281, 446, 106, -69.91736, 0
30.99522, 254, 439, 104, -71.40496, 0
31.01486, 216, 435, 108, -68.42975, 0
31.03683, 185, 429, 112, -65.45454, 0
31.0525, 143, 426, 116, -62.47934, 0
31.07269, 114, 424, 118, -60.99174, 180
31.09379, 93, 428, 119, -60.24793, 180
31.11363, 77, 435, 110, -66.94215, 180
31.13497, 67, 442, 110, -66.94215, 180
31.15427, 56, 443, 111, -66.19835, 180
31.1717, 50, 445, 120, -59.50413, 180
31.19147, 55, 446, 129, -52.80992, 180
31.21255, 73, 445, 138, -46.1157, 180
31.23248, 97, 444, 144, -41.65289, 180
31.25272, 122, 443, 148, -38.67768, 180
31.27275, 142, 442, 148, -38.67768, 180
31.28952, 154, 441, 148, -38.67768, 180
31.31071, 165, 441, 149, -37.93388, 180
31.33045, 170, 440, 148, -38.67768, 180
31.35268, 170, 440, 148, -38.67768, 180
31.37107, 173, 441, 146, -40.16529, 180
31.39358, 171, 441, 145, -40.90909, 180
31.40961, 172, 442, 144, -41.65289, 180
31.42944, 176, 442, 145, -40.90909, 180
31.44903, 172, 440, 143, -42.39669, 180
31.46995, 174, 442, 145, -40.90909, 180
31.48976, 176, 442, 144, -41.65289, 180
31.51153, 177, 442, 146, -40.16529, 180
31.5287, 179, 442, 148, -38.67768, 180
31.54754, 180, 442, 148, -38.67768, 180
31.56886, 178, 442, 148, -38.67768, 180
31.58831, 175, 442, 148, -38.67768, 180
31.60882, 174, 441, 149, -37.93388, 180
31.62985, 170, 442, 151, -36.44628, 180
31.6464, 168, 441, 152, -35.70248, 180
31.66641, 185, 440, 154, -34.21487, 180
31.68704, 210, 440, 155, -33.47107, 180
31.70769, 216, 440, 156, -32.72727, 180
31.72861, 180, 439, 156, -32.72727, 180
31.74798, 163, 439, 156, -32.72727, 180
31.76592, 197, 439, 157, -31.98347, 180
31.78473, 205, 438, 157, -31.98347, 180
31.80551, 195, 441, 159, -30.49587, 180
31.82645, 175, 440, 157, -31.98347, 180
31.84655, 175, 440, 158, -31.23967, 180
31.86542, 185, 440, 159, -30.49587, 180
31.88383, 166, 441, 159, -30.49587, 180
31.90416, 158, 442, 159, -30.49587, 180
31.9243, 176, 442, 159, -30.49587, 180
31.94584, 164, 442, 159, -30.49587, 180
31.96495, 169, 443, 159, -30.49587, 180
31.98275, 159, 443, 159, -30.49587, 180
32.00191, 160, 444, 159, -30.49587, 180
32.02276, 165, 444, 159, -30.49587, 180
32.04365, 160, 444, 159, -30.49587, 180
32.06396, 161, 445, 159, -30.49587, 180
32.08397, 172, 445, 159, -30.49587, 180
32.10025, 175, 445, 158, -31.23967, 180
32.12088, 179, 445, 158, -31.23967, 180
32.14153, 187, 446, 158, -31.23967, 180
32.16283, 196, 445, 158, -31.23967, 180
32.18296, 200, 445, 158, -31.23967, 180
32.20438, 201, 445, 158, -31.23967, 180
32.22044, 207, 446, 158, -31.23967, 180
32.24457, 219, 446, 158, -31.23967, 180
32.26131, 219, 446, 158, -31.23967, 180
32.28065, 225, 445, 158, -31.23967, 180
32.30116, 227, 446, 158, -31.23967, 180
32.32135, 220, 446, 158, -31.23967, 180
32.33821, 223, 446, 158, -31.23967, 180
32.35904, 223, 445, 158, -31.23967, 180
32.37919, 215, 446, 158, -31.23967, 180
32.39919, 213, 446, 158, -31.23967, 180
32.42065, 210, 445, 158, -31.23967, 180
32.43994, 209, 446, 158, -31.23967, 180
32.45697, 198, 445, 158, -31.23967, 180
32.47824, 199, 446, 158, -31.23967, 180
32.49781, 190, 445, 159, -30.49587, 180
32.5181, 183, 445, 159, -30.49587, 180
32.53849, 181, 445, 159, -30.49587, 180
32.55498, 178, 445, 158, -31.23967, 180
32.57621, 168, 445, 158, -31.23967, 180
32.5965, 168, 445, 158, -31.23967, 180
32.61635, 157, 445, 158, -31.23967, 180
32.63751, 152, 446, 158, -31.23967, 180
32.65764, 148, 445, 158, -31.23967, 180
32.67403, 150, 445, 158, -31.23967, 180
32.69503, 167, 446, 158, -31.23967, 180
32.71504, 158, 445, 158, -31.23967, 180
32.73523, 150, 445, 158, -31.23967, 180
32.75559, 144, 446, 158, -31.23967, 180
32.77663, 155, 447, 158, -31.23967, 180
32.79296, 157, 447, 158, -31.23967, 180
32.81304, 149, 447, 158, -31.23967, 180
32.83356, 151, 447, 158, -31.23967, 180
32.85571, 160, 447, 158, -31.23967, 180
32.87553, 159, 448, 158, -31.23967, 180
32.8968, 165, 448, 158, -31.23967, 180
32.91161, 167, 447, 158, -31.23967, 180
32.93157, 167, 448, 158, -31.23967, 180
32.95255, 169, 447, 158, -31.23967, 180
32.9727, 167, 447, 158, -31.23967, 180
32.9939, 167, 446, 158, -31.23967, 180
33.0137, 161, 445, 158, -31.23967, 180
33.03038, 159, 446, 158, -31.23967, 180
33.05033, 158, 447, 158, -31.23967, 180
33.07195, 161, 448, 158, -31.23967, 180
33.09187, 167, 448, 158, -31.23967, 180
33.1124, 156, 448, 158, -31.23967, 180
33.13256, 154, 449, 158, -31.23967, 180
33.14898, 155, 449, 158, -31.23967, 180
33.1692, 158, 449, 158, -31.23967, 180
33.18976, 154, 450, 158, -31.23967, 180
33.21138, 156, 447, 169, -23.05785, 180
33.23111, 153, 447, 169, -23.05785, 180
33.25119, 155, 448, 169, -23.05785, 180
33.26996, 156, 448, 169, -23.05785, 180
33.2886, 156, 447, 169, -23.05785, 180
33.31089, 159, 448, 169, -23.05785, 180
33.32949, 165, 448, 169, -23.05785, 180
33.35095, 163, 448, 169, -23.05785, 180
33.36995, 166, 447, 169, -23.05785, 180
33.38683, 166, 446, 169, -23.05785, 180
33.4073, 169, 446, 169, -23.05785, 180
33.42844, 170, 447, 169, -23.05785, 180
33.44903, 170, 447, 169, -23.05785, 180
33.46833, 173, 447, 169, -23.05785, 180
33.48667, 172, 447, 169, -23.05785, 180
33.50541, 168, 447, 169, -23.05785, 180
33.52742, 167, 447, 169, -23.05785, 180
33.54721, 167, 447, 169, -23.05785, 180
33.5672, 164, 447, 169, -23.05785, 180
33.58802, 161, 447, 169, -23.05785, 180
33.60418, 159, 448, 169, -23.05785, 180
33.62382, 159, 447, 169, -23.05785, 180
33.64594, 157, 448, 169, -23.05785, 180
33.66483, 160, 448, 169, -23.05785, 180
33.68526, 158, 448, 169, -23.05785, 180
33.7072, 159, 448, 169, -23.05785, 180
33.72354, 161, 449, 168, -23.80165, 180
33.74303, 163, 449, 168, -23.80165, 180
33.76333, 165, 449, 168, -23.80165, 180
33.78364, 164, 453, 158, -31.23967, 180
33.80412, 167, 453, 157, -31.98347, 180
33.82428, 168, 453, 157, -31.98347, 180
33.84148, 170, 454, 157, -31.98347, 180
33.86245, 171, 454, 157, -31.98347, 180
33.88223, 172, 454, 157, -31.98347, 180
33.90265, 173, 455, 157, -31.98347, 180
33.92396, 173, 455, 157, -31.98347, 180
33.94415, 176, 455, 158, -31.23967, 180
33.96079, 176, 455, 157, -31.98347, 180
33.98017, 179, 455, 157, -31.98347, 180
34.00062, 186, 455, 157, -31.98347, 180
34.02108, 180, 454, 157, -31.98347, 180
34.04167, 179, 454, 157, -31.98347, 180
34.0631, 176, 454, 157, -31.98347, 180
34.0789, 173, 454, 157, -31.98347, 180
34.09901, 168, 455, 157, -31.98347, 180
34.12006, 167, 454, 157, -31.98347, 180
34.14077, 165, 454, 157, -31.98347, 180
34.16125, 163, 454, 157, -31.98347, 180
34.18087, 161, 454, 157, -31.98347, 180
34.19878, 164, 454, 157, -31.98347, 180
34.21839, 163, 454, 157, -31.98347, 180
34.23889, 162, 454, 157, -31.98347, 180
34.25983, 162, 455, 157, -31.98347, 180
34.27955, 162, 456, 157, -31.98347, 180
34.2962, 163, 455, 157, -31.98347, 180
34.31618, 170, 456, 157, -31.98347, 180
34.33672, 168, 456, 157, -31.98347, 180
34.35859, 167, 455, 157, -31.98347, 180
34.37892, 167, 456, 157, -31.98347, 180
34.39836, 172, 456, 157, -31.98347, 180
34.41479, 163, 457, 156, -32.72727, 180
34.43501, 164, 457, 157, -31.98347, 180
34.45557, 169, 457, 156, -32.72727, 180
34.47609, 172, 458, 156, -32.72727, 180
34.49666, 175, 459, 156, -32.72727, 180
34.51706, 183, 459, 156, -32.72727, 180
34.53317, 192, 459, 156, -32.72727, 180
34.55376, 197, 460, 156, -32.72727, 180
34.57507, 203, 459, 158, -31.23967, 180
34.59564, 206, 460, 157, -31.98347, 180
34.61514, 213, 460, 157, -31.98347, 180
34.63549, 224, 458, 159, -30.49587, 180
34.65324, 225, 457, 161, -29.00826, 180
34.67242, 226, 456, 160, -29.75207, 180
34.6931, 228, 456, 159, -30.49587, 180
34.71341, 230, 456, 156, -32.72727, 180
34.73392, 232, 457, 154, -34.21487, 180
34.75421, 232, 457, 154, -34.21487, 180
34.77159, 234, 457, 154, -34.21487, 180
34.79103, 235, 458, 154, -34.21487, 180
34.8123, 235, 458, 154, -34.21487, 180
34.83206, 244, 458, 154, -34.21487, 180
34.85482, 254, 458, 154, -34.21487, 180
34.87347, 258, 458, 154, -34.21487, 0
34.89216, 253, 464, 128, -53.55372, 0
34.91131, 228, 463, 106, -69.91736, 0
34.93131, 205, 455, 96, -77.35537, 0
34.95079, 164, 447, 92, -80.33058, 0
34.97224, 131, 442, 91, -81.07438, 0
34.99405, 114, 435, 95, -78.09917, 180
35.01015, 136, 424, 137, -46.8595, 180
35.03018, 144, 438, 113, -64.71075, 180
35.04994, 157, 438, 105, -70.66116, 180
35.06966, 166, 444, 110, -66.94215, 180
35.09013, 151, 446, 116, -62.47934, 180
35.11148, 131, 447, 124, -56.52893, 180
35.1287, 107, 446, 131, -51.32232, 180
35.14761, 87, 444, 135, -48.34711, 180
35.16914, 74, 444, 136, -47.60331, 180
35.1889, 69, 443, 136, -47.60331, 180
35.2111, 67, 443, 136, -47.60331, 180
35.23381, 71, 444, 136, -47.60331, 180
35.24803, 73, 443, 136, -47.60331, 180
35.26686, 79, 443, 136, -47.60331, 180
35.28835, 90, 444, 136, -47.60331, 180
35.30786, 93, 444, 136, -47.60331, 180
35.32882, 99, 443, 136, -47.60331, 180
35.34818, 107, 444, 136, -47.60331, 180
35.36869, 117, 444, 136, -47.60331, 180
35.38516, 126, 444, 136, -47.60331, 180
35.40567, 134, 444, 136, -47.60331, 180
35.42856, 144, 445, 136, -47.60331, 180
35.44704, 152, 444, 136, -47.60331, 180
35.46803, 158, 443, 136, -47.60331, 180
35.48766, 165, 444, 136, -47.60331, 180
35.50386, 172, 444, 136, -47.60331, 180
35.52417, 184, 444, 136, -47.60331, 180
35.54557, 184, 444, 136, -47.60331, 180
35.56544, 189, 443, 136, -47.60331, 180
35.58583, 194, 444, 136, -47.60331, 180
35.60594, 197, 444, 136, -47.60331, 180
35.62357, 201, 445, 136, -47.60331, 180
35.64384, 210, 444, 136, -47.60331, 180
35.66374, 211, 445, 136, -47.60331, 180
35.68399, 216, 444, 136, -47.60331, 180
35.70548, 220, 444, 136, -47.60331, 180
35.72736, 222, 444, 136, -47.60331, 180
35.74407, 223, 444, 136, -47.60331, 180
35.76464, 225, 444, 136, -47.60331, 180
35.78365, 229, 444, 136, -47.60331, 180
35.80446, 227, 445, 136, -47.60331, 180
35.82462, 229, 444, 136, -47.60331, 180
35.84234, 229, 444, 136, -47.60331, 180
35.86231, 230, 444, 136, -47.60331, 180
35.88418, 228, 444, 136, -47.60331, 180
35.90252, 232, 444, 136, -47.60331, 180
35.92395, 232, 444, 136, -47.60331, 180
35.94342, 233, 445, 136, -47.60331, 180
35.96136, 233, 445, 136, -47.60331, 180
35.97948, 233, 445, 136, -47.60331, 180
35.99964, 232, 444, 136, -47.60331, 180
36.01962, 234, 444, 136, -47.60331, 180
36.04051, 235, 444, 136, -47.60331, 180
36.06247, 236, 445, 136, -47.60331, 180
36.07827, 233, 445, 136, -47.60331, 180
36.09822, 234, 445, 136, -47.60331, 180
36.11823, 232, 445, 136, -47.60331, 180
36.13899, 232, 445, 136, -47.60331, 180
36.15968, 231, 445, 136, -47.60331, 180
36.17952, 226, 445, 136, -47.60331, 180
36.19638, 226, 445, 136, -47.60331, 180
36.21737, 223, 445, 136, -47.60331, 180
36.23925, 225, 445, 136, -47.60331, 180
36.25943, 227, 444, 136, -47.60331, 180
36.28041, 224, 445, 136, -47.60331, 180
36.29888, 224, 445, 136, -47.60331, 180
36.31548, 224, 445, 136, -47.60331, 180
36.3354, 224, 445, 136, -47.60331, 180
36.35544, 221, 446, 136, -47.60331, 180
36.37643, 219, 445, 136, -47.60331, 180
36.39688, 219, 445, 136, -47.60331, 180
36.41757, 220, 445, 136, -47.60331, 180
36.43343, 219, 445, 136, -47.60331, 180
36.4539, 216, 445, 136, -47.60331, 180
36.48018, 216, 445, 136, -47.60331, 180
36.49843, 213, 445, 136, -47.60331, 180
36.51551, 210, 445, 136, -47.60331, 180
36.53717, 209, 445, 136, -47.60331, 180
36.55337, 203, 445, 136, -47.60331, 180
36.57272, 199, 445, 136, -47.60331, 180
36.59401, 196, 445, 136, -47.60331, 180
36.61444, 193, 445, 136, -47.60331, 180
36.63426, 191, 445, 136, -47.60331, 180
36.65049, 189, 445, 136, -47.60331, 180
36.67103, 181, 445, 136, -47.60331, 180
36.69253, 179, 445, 136, -47.60331, 180
36.71324, 175, 445, 136, -47.60331, 180
36.73241, 169, 445, 136, -47.60331, 180
36.75296, 169, 445, 136, -47.60331, 180
36.76921, 168, 445, 136, -47.60331, 180
36.78964, 165, 445, 136, -47.60331, 180
36.81102, 162, 445, 136, -47.60331, 180
36.83074, 160, 445, 136, -47.60331, 180
36.85121, 155, 444, 136, -47.60331, 180
36.87505, 151, 444, 136, -47.60331, 180
36.89622, 148, 445, 136, -47.60331, 180
36.91438, 145, 445, 136, -47.60331, 180
36.93264, 138, 445, 136, -47.60331, 180
36.95111, 136, 445, 136, -47.60331, 180
36.97079, 136, 445, 136, -47.60331, 180
36.9935, 130, 445, 136, -47.60331, 180
37.00889, 126, 445, 136, -47.60331, 180
37.02848, 125, 445, 136, -47.60331, 180
37.04782, 125, 445, 136, -47.60331, 180
37.06913, 119, 445, 136, -47.60331, 180
37.08871, 117, 444, 136, -47.60331, 180
37.10932, 111, 444, 136, -47.60331, 180
37.13052, 111, 444, 136, -47.60331, 180
37.14653, 101, 444, 136, -47.60331, 180
37.16674, 94, 445, 136, -47.60331, 180
37.18906, 94, 444, 136, -47.60331, 180
37.2086, 87, 444, 136, -47.60331, 180
37.23035, 86, 445, 136, -47.60331, 180
37.25041, 85, 444, 136, -47.60331, 180
37.26725, 81, 444, 136, -47.60331, 180
37.28579, 76, 444, 136, -47.60331, 180
37.30642, 77, 445, 136, -47.60331, 180
37.32765, 73, 444, 136, -47.60331, 180
37.3481, 70, 444, 136, -47.60331, 180
37.36759, 70, 444, 136, -47.60331, 180
37.38412, 67, 444, 136, -47.60331, 180
37.40436, 64, 444, 136, -47.60331, 180
37.42481, 62, 444, 136, -47.60331, 180
37.44594, 59, 444, 136, -47.60331, 180
37.46571, 57, 444, 136, -47.60331, 180
37.48658, 58, 444, 136, -47.60331, 180
37.50255, 53, 444, 136, -47.60331, 180
37.52285, 51, 444, 136, -47.60331, 180
37.54438, 50, 444, 136, -47.60331, 180
37.56488, 47, 444, 136, -47.60331, 180
37.58444, 49, 444, 136, -47.60331, 180
37.60484, 44, 444, 136, -47.60331, 180
37.62581, 42, 443, 136, -47.60331, 180
37.64311, 42, 444, 136, -47.60331, 180
37.66249, 40, 444, 136, -47.60331, 180
37.68269, 40, 445, 136, -47.60331, 180
37.7039, 38, 444, 136, -47.60331, 180
37.72348, 36, 444, 136, -47.60331, 180
37.745, 37, 444, 136, -47.60331, 180
37.76225, 36, 445, 136, -47.60331, 180
37.78089, 36, 444, 136, -47.60331, 180
37.80145, 34, 445, 136, -47.60331, 180
37.82187, 36, 444, 136, -47.60331, 180
37.84263, 35, 444, 136, -47.60331, 180
37.86409, 37, 444, 136, -47.60331, 180
37.8807, 34, 444, 136, -47.60331, 180
37.89982, 35, 444, 136, -47.60331, 180
37.9216, 34, 444, 136, -47.60331, 180
37.94033, 34, 444, 136, -47.60331, 180
37.96251, 36, 445, 136, -47.60331, 180
37.98613, 36, 445, 136, -47.60331, 180
38.00628, 38, 445, 136, -47.60331, 180
38.02244, 39, 444, 136, -47.60331, 180
38.03992, 38, 445, 136, -47.60331, 180
38.05996, 39, 445, 136, -47.60331, 180
38.08001, 38, 445, 136, -47.60331, 180
38.10044, 39, 445, 136, -47.60331, 180
38.12103, 39, 445, 136, -47.60331, 180
38.13742, 39, 445, 136, -47.60331, 180
38.15796, 38, 445, 136, -47.60331, 180
38.17927, 39, 445, 136, -47.60331, 180
38.19995, 39, 445, 136, -47.60331, 180
38.21912, 37, 445, 136, -47.60331, 180
38.23977, 36, 444, 136, -47.60331, 180
38.25661, 38, 445, 136, -47.60331, 180
38.27817, 38, 445, 136, -47.60331, 180
38.29983, 36, 445, 136, -47.60331, 180
38.32055, 35, 445, 136, -47.60331, 180
38.33981, 37, 444, 136, -47.60331, 180
38.36088, 35, 445, 136, -47.60331, 180
38.38162, 34, 445, 136, -47.60331, 180
38.39796, 33, 444, 136, -47.60331, 180
38.41742, 33, 444, 136, -47.60331, 180
38.43742, 35, 444, 136, -47.60331, 180
38.45812, 36, 444, 136, -47.60331, 180
38.47843, 38, 444, 136, -47.60331, 180
38.49824, 34, 444, 136, -47.60331, 180
38.51432, 36, 444, 136, -47.60331, 180
38.53461, 33, 444, 136, -47.60331, 180
38.55802, 31, 443, 136, -47.60331, 180
38.57853, 32, 444, 136, -47.60331, 180
38.59757, 29, 444, 136, -47.60331, 180
38.61812, 28, 443, 136, -47.60331, 180
38.63419, 26, 443, 136, -47.60331, 180
38.65408, 33, 443, 136, -47.60331, 180
38.67445, 29, 444, 136, -47.60331, 180
38.69647, 39, 444, 136, -47.60331, 180
38.71576, 48, 443, 136, -47.60331, 180
38.73649, 64, 443, 136, -47.60331, 180
38.7523, 76, 443, 136, -47.60331, 180
38.77291, 92, 443, 136, -47.60331, 180
38.79361, 84, 443, 136, -47.60331, 180
38.81376, 90, 443, 136, -47.60331, 180
38.83539, 74, 442, 136, -47.60331, 180
38.85487, 71, 435, 146, -40.16529, 180
38.87712, 61, 441, 136, -47.60331, 180
38.89244, 54, 448, 136, -47.60331, 180
38.91252, 60, 442, 132, -50.57851, 180
38.93231, 54, 442, 131, -51.32232, 180
38.95265, 52, 442, 132, -50.57851, 180
38.97311, 75, 442, 132, -50.57851, 180
38.99434, 65, 442, 133, -49.83471, 180
39.01059, 63, 442, 135, -48.34711, 180
39.03034, 53, 441, 130, -52.06612, 180
39.05151, 52, 443, 136, -47.60331, 180
39.07121, 77, 442, 137, -46.8595, 180
39.09325, 91, 442, 137, -46.8595, 180
39.1153, 85, 442, 138, -46.1157, 180
39.13078, 74, 442, 139, -45.3719, 180
39.15134, 63, 441, 139, -45.3719, 180
39.17149, 68, 442, 141, -43.8843, 180
39.19254, 59, 441, 142, -43.1405, 180
39.21358, 49, 440, 142, -43.1405, 180
39.23348, 43, 441, 141, -43.8843, 180
39.25508, 52, 440, 142, -43.1405, 180
39.27101, 54, 439, 143, -42.39669, 180
39.29037, 55, 439, 141, -43.8843, 180
39.31138, 53, 447, 143, -42.39669, 180
39.33183, 58, 439, 140, -44.6281, 180
39.35364, 51, 440, 139, -45.3719, 180
39.37074, 57, 439, 139, -45.3719, 180
39.38778, 56, 448, 140, -44.6281, 180
39.40759, 64, 441, 140, -44.6281, 180
39.42869, 62, 448, 144, -41.65289, 180
39.44821, 73, 440, 144, -41.65289, 180
39.4695, 74, 440, 145, -40.90909, 180
39.49095, 74, 441, 146, -40.16529, 180
39.50966, 68, 441, 146, -40.16529, 180
39.52893, 65, 441, 146, -40.16529, 180
39.549, 71, 441, 146, -40.16529, 180
39.56872, 67, 441, 147, -39.42149, 180
39.59026, 67, 442, 148, -38.67768, 180
39.61024, 66, 442, 149, -37.93388, 180
39.63154, 61, 441, 152, -35.70248, 180
39.6468, 60, 441, 152, -35.70248, 180
39.66837, 58, 442, 152, -35.70248, 180
39.68901, 57, 442, 152, -35.70248, 180
39.70618, 61, 441, 152, -35.70248, 180
39.72876, 64, 441, 152, -35.70248, 180
39.74776, 68, 441, 152, -35.70248, 180
39.76403, 74, 440, 152, -35.70248, 180
39.78439, 75, 438, 152, -35.70248, 180
39.8042, 73, 439, 149, -37.93388, 180
39.82547, 78, 438, 147, -39.42149, 180
39.84622, 83, 440, 145, -40.90909, 180
39.8658, 85, 441, 145, -40.90909, 180
39.88264, 87, 442, 147, -39.42149, 180
39.90398, 90, 442, 151, -36.44628, 180
39.9234, 94, 440, 155, -33.47107, 180
39.94539, 98, 440, 157, -31.98347, 180
39.96429, 99, 439, 157, -31.98347, 180
39.98448, 101, 440, 157, -31.98347, 180
40.00484, 104, 440, 158, -31.23967, 180
40.0214, 108, 439, 157, -31.98347, 180
40.04187, 108, 439, 157, -31.98347, 180
40.06253, 106, 439, 158, -31.23967, 180
40.08304, 112, 439, 158, -31.23967, 180
40.1046, 112, 439, 157, -31.98347, 180
40.12349, 105, 438, 157, -31.98347, 180
40.14019, 106, 439, 157, -31.98347, 180
40.1618, 102, 439, 157, -31.98347, 180
40.18105, 105, 439, 157, -31.98347, 180
40.2016, 102, 439, 157, -31.98347, 180
40.22179, 96, 439, 157, -31.98347, 180
40.24256, 90, 439, 157, -31.98347, 180
40.25971, 94, 439, 157, -31.98347, 180
40.27954, 90, 440, 157, -31.98347, 180
40.2999, 86, 440, 157, -31.98347, 180
40.3212, 86, 440, 157, -31.98347, 180
40.34054, 82, 440, 157, -31.98347, 180
40.36219, 83, 440, 157, -31.98347, 180
40.37901, 80, 440, 157, -31.98347, 180
40.40203, 74, 440, 157, -31.98347, 180
40.42119, 70, 440, 157, -31.98347, 180
40.43924, 74, 440, 157, -31.98347, 180
40.46016, 74, 440, 157, -31.98347, 180
40.48017, 67, 440, 157, -31.98347, 180
40.50071, 67, 439, 157, -31.98347, 180
40.5181, 65, 440, 157, -31.98347, 180
40.53748, 73, 439, 157, -31.98347, 180
40.55797, 73, 440, 157, -31.98347, 180
40.5795, 73, 439, 157, -31.98347, 180
40.5988, 77, 439, 157, -31.98347, 180
40.61926, 74, 439, 157, -31.98347, 180
40.63575, 70, 438, 157, -31.98347, 180
40.65942, 78, 439, 157, -31.98347, 180
40.68016, 76, 439, 157, -31.98347, 180
40.69906, 73, 439, 157, -31.98347, 180
40.72004, 72, 439, 157, -31.98347, 180
40.7432, 66, 440, 157, -31.98347, 180
40.75871, 63, 439, 157, -31.98347, 180
40.77794, 66, 440, 157, -31.98347, 180
40.79855, 67, 440, 157, -31.98347, 180
40.81862, 65, 440, 157, -31.98347, 180
40.83906, 64, 440, 157, -31.98347, 180
40.85897, 65, 440, 157, -31.98347, 180
40.88064, 69, 440, 157, -31.98347, 180
40.89885, 63, 440, 157, -31.98347, 180
40.91782, 66, 439, 157, -31.98347, 180
40.93488, 70, 438, 157, -31.98347, 180
40.95631, 66, 438, 157, -31.98347, 180
40.97672, 67, 438, 157, -31.98347, 180
40.99651, 69, 438, 156, -32.72727, 180
41.01262, 72, 438, 154, -34.21487, 180
41.03358, 74, 438, 154, -34.21487, 180
41.05342, 76, 438, 152, -35.70248, 180
41.07384, 80, 439, 144, -41.65289, 180
41.09545, 98, 439, 150, -37.19008, 180
41.11486, 85, 441, 142, -43.1405, 180
41.13143, 94, 439, 148, -38.67768, 180
41.15183, 89, 440, 148, -38.67768, 180
41.17316, 90, 441, 150, -37.19008, 180
41.19306, 83, 442, 151, -36.44628, 180
41.21328, 98, 441, 154, -34.21487, 180
41.23621, 94, 446, 158, -31.23967, 180
41.25669, 95, 440, 160, -29.75207, 180
41.27325, 99, 440, 162, -28.26446, 180
41.29361, 99, 440, 163, -27.52066, 180
41.3145, 96, 449, 163, -27.52066, 180
41.33418, 96, 440, 162, -28.26446, 180
41.35476, 98, 441, 165, -26.03306, 180
41.37771, 94, 440, 165, -26.03306, 180
41.39385, 96, 449, 167, -24.54545, 180
41.41707, 94, 441, 170, -22.31405, 180
41.43152, 90, 441, 175, -18.59504, 180
41.45118, 87, 440, 177, -17.10744, 180
41.47129, 88, 439, 173, -20.08265, 180
41.49398, 88, 439, 179, -15.61983, 180
41.51257, 84, 440, 179, -15.61983, 180
41.53043, 78, 440, 178, -16.36364, 180
41.54959, 78, 440, 180, -14.87603, 180
41.57011, 76, 441, 180, -14.87603, 180
41.59198, 78, 441, 181, -14.13223, 180
41.61188, 68, 442, 183, -12.64463, 180
41.63166, 57, 442, 185, -11.15702, 180
41.64907, 54, 442, 187, -9.669421, 180
41.6683, 54, 441, 191, -6.694215, 180
41.68897, 49, 441, 195, -3.719008, 180
41.70963, 46, 440, 197, -2.231405, 180
41.73009, 53, 439, 199, -0.7438017, 180
41.75141, 46, 440, 198, -1.487603, 180
41.7673, 41, 439, 200, 0, 180
41.78868, 50, 439, 198, -1.487603, 180
41.80913, 48, 439, 197, -2.231405, 180
41.82927, 46, 439, 197, -2.231405, 180
41.8483, 47, 439, 197, -2.231405, 180
41.86893, 49, 439, 198, -1.487603, 180
41.88538, 45, 444, 204, 2.975207, 180
41.90614, 49, 440, 198, -1.487603, 180
41.92734, 58, 439, 198, -1.487603, 180
41.94707, 55, 440, 192, -5.950413, 180
41.96762, 61, 437, 191, -6.694215, 180
41.98725, 59, 436, 193, -5.206612, 180
42.00792, 62, 438, 182, -13.38843, 180
42.02652, 61, 451, 169, -23.05785, 180
42.04568, 56, 473, 197, -2.231405, 180
42.06832, 79, 441, 198, -1.487603, 180
42.08884, 63, 440, 199, -0.7438017, 180
42.10907, 61, 441, 199, -0.7438017, 180
42.12908, 59, 440, 199, -0.7438017, 180
42.14591, 58, 441, 201, 0.7438017, 180
42.16639, 64, 441, 203, 2.231405, 180
42.18688, 70, 442, 204, 2.975207, 180
42.20702, 73, 441, 206, 4.46281, 180
42.22841, 71, 440, 206, 4.46281, 180
42.25006, 78, 440, 207, 5.206612, 180
42.25006: Grabbed object
42.26685, 77, 440, 206, 4.46281, 180
42.28482, 77, 441, 208, 5.950413, 180
42.3051, 85, 442, 208, 5.950413, 180
42.32528, 100, 443, 208, 5.950413, 180
42.34679, 113, 444, 209, 6.694215, 180
42.36674, 122, 445, 208, 5.950413, 180
42.38737, 142, 445, 208, 5.950413, 180
42.40324, 156, 445, 208, 5.950413, 180
42.42398, 175, 445, 208, 5.950413, 180
42.44511, 181, 445, 208, 5.950413, 180
42.4643, 164, 444, 208, 5.950413, 180
42.48277, 151, 443, 208, 5.950413, 180
42.5033, 144, 443, 208, 5.950413, 180
42.52001, 152, 443, 208, 5.950413, 180
42.53992, 193, 444, 208, 5.950413, 180
42.56133, 217, 445, 208, 5.950413, 180
42.58148, 236, 447, 208, 5.950413, 180
42.60173, 259, 449, 207, 5.206612, 180
42.62199, 278, 449, 207, 5.206612, 0
42.63844, 268, 466, 145, -40.90909, 0
42.63844: Released object
42.65926, 296, 455, 160, -29.75207, 0
42.68023, 305, 455, 145, -40.90909, 0
42.69988, 323, 452, 140, -44.6281, 0
42.72038, 348, 448, 135, -48.34711, 0
42.74067, 384, 444, 133, -49.83471, 0
42.75762, 428, 441, 131, -51.32232, 0
42.77877, 477, 441, 139, -45.3719, 0
42.79839, 505, 433, 140, -44.6281, 0
42.81882, 544, 439, 144, -41.65289, 0
42.839, 578, 435, 138, -46.1157, 0
42.86142, 601, 431, 140, -44.6281, 0
42.87799, 635, 437, 138, -46.1157, 0
42.8967, 656, 429, 137, -46.8595, 0
42.91766, 682, 430, 136, -47.60331, 0
42.93822, 693, 430, 133, -49.83471, 0
42.95883, 694, 429, 132, -50.57851, 0
42.97946, 689, 437, 131, -51.32232, 0
42.99909, 694, 427, 128, -53.55372, 0
43.01666, 695, 427, 128, -53.55372, 0
43.03613, 691, 426, 124, -56.52893, 0
43.05663, 684, 425, 129, -52.80992, 0
43.07874, 674, 426, 129, -52.80992, 0
43.09836, 660, 426, 127, -54.29752, 0
43.11906, 645, 425, 127, -54.29752, 0
43.13422, 624, 424, 127, -54.29752, 0
43.15492, 604, 425, 126, -55.04132, 0
43.17524, 586, 424, 125, -55.78513, 0
43.19601, 572, 424, 125, -55.78513, 0
43.21817, 551, 423, 126, -55.04132, 0
43.23814, 531, 423, 126, -55.04132, 0
43.25475, 512, 423, 125, -55.78513, 0
43.27417, 493, 423, 124, -56.52893, 0
43.29627, 474, 422, 125, -55.78513, 0
43.31647, 448, 423, 125, -55.78513, 0
43.33512, 435, 422, 127, -54.29752, 0
43.35546, 417, 422, 127, -54.29752, 0
43.37646, 392, 422, 127, -54.29752, 0
43.39308, 377, 422, 127, -54.29752, 0
43.41289, 365, 421, 128, -53.55372, 0
43.43309, 344, 421, 128, -53.55372, 0
43.45399, 326, 420, 129, -52.80992, 0
43.47404, 310, 419, 128, -53.55372, 0
43.49528, 296, 419, 128, -53.55372, 0
43.51206, 282, 419, 128, -53.55372, 0
43.53249, 266, 420, 128, -53.55372, 0
43.55184, 250, 419, 128, -53.55372, 0
43.57236, 235, 419, 128, -53.55372, 0
43.59325, 223, 419, 128, -53.55372, 0
43.61332, 209, 419, 128, -53.55372, 0
43.6298, 197, 419, 128, -53.55372, 0
43.65018, 191, 419, 128, -53.55372, 0
43.67055, 177, 419, 128, -53.55372, 0
43.69091, 166, 419, 128, -53.55372, 0
43.71254, 159, 419, 129, -52.80992, 0
43.73302, 150, 420, 128, -53.55372, 0
43.74875, 137, 420, 128, -53.55372, 0
43.76891, 131, 419, 128, -53.55372, 180
43.78944, 125, 422, 123, -57.27273, 180
43.81086, 109, 430, 106, -69.91736, 180
43.83049, 92, 437, 102, -72.89256, 180
43.85101, 78, 441, 105, -70.66116, 180
43.86734, 68, 444, 111, -66.19835, 180
43.8878, 68, 446, 118, -60.99174, 180
43.90855, 92, 452, 125, -55.78513, 180
43.92981, 124, 445, 136, -47.60331, 180
43.95034, 161, 443, 143, -42.39669, 180
43.96975, 186, 440, 146, -40.16529, 180
43.98648, 204, 439, 146, -40.16529, 180
44.00697, 216, 439, 143, -42.39669, 180
44.02843, 224, 439, 140, -44.6281, 180
44.04771, 230, 446, 140, -44.6281, 180
44.06814, 239, 448, 139, -45.3719, 180
44.08871, 246, 440, 139, -45.3719, 180
44.10485, 246, 439, 137, -46.8595, 180
44.1255, 250, 441, 140, -44.6281, 180
44.14626, 254, 442, 141, -43.8843, 180
44.16767, 259, 450, 143, -42.39669, 0
44.18717, 271, 441, 144, -41.65289, 0
44.20726, 265, 439, 139, -45.3719, 0
44.22387, 252, 437, 128, -53.55372, 0
44.24582, 230, 433, 124, -56.52893, 0
44.26488, 208, 431, 122, -58.01653, 0
44.28518, 183, 425, 123, -57.27273, 0
44.30558, 151, 431, 134, -49.09091, 0
44.32618, 132, 419, 140, -44.6281, 0
44.34453, 108, 417, 145, -40.90909, 180
44.3659, 87, 424, 120, -59.50413, 180
44.38861, 84, 431, 109, -67.68595, 180
44.40447, 76, 437, 113, -64.71075, 180
44.42471, 73, 441, 117, -61.73554, 180
44.44627, 62, 446, 126, -55.04132, 180
44.46583, 62, 443, 136, -47.60331, 180
44.48224, 61, 451, 143, -42.39669, 180
44.50616, 73, 444, 149, -37.93388, 180
44.52276, 82, 444, 153, -34.95868, 180
44.54481, 92, 441, 158, -31.23967, 180
44.56351, 100, 440, 162, -28.26446, 180
44.58456, 112, 440, 163, -27.52066, 180
44.60212, 117, 440, 163, -27.52066, 180
44.62137, 124, 441, 164, -26.77686, 180
44.64221, 122, 439, 164, -26.77686, 180
44.66332, 119, 441, 164, -26.77686, 180
44.68265, 127, 441, 165, -26.03306, 180
44.70329, 126, 442, 167, -24.54545, 180
44.71955, 119, 448, 168, -23.80165, 180
44.74028, 128, 442, 170, -22.31405, 180
44.76143, 132, 442, 173, -20.08265, 180
44.78136, 142, 440, 178, -16.36364, 180
44.8016, 143, 440, 180, -14.87603, 180
44.82278, 145, 440, 181, -14.13223, 180
44.84284, 144, 438, 182, -13.38843, 180
44.86015, 147, 440, 183, -12.64463, 180
44.88, 147, 443, 174, -19.33884, 180
44.89983, 153, 440, 183, -12.64463, 180
44.92032, 142, 440, 183, -12.64463, 180
44.94074, 139, 441, 183, -12.64463, 180
44.96244, 142, 439, 183, -12.64463, 180
44.9791, 138, 440, 183, -12.64463, 180
44.99791, 128, 440, 184, -11.90083, 180
45.01838, 131, 441, 184, -11.90083, 180
45.03961, 129, 442, 185, -11.15702, 180
45.05922, 128, 441, 185, -11.15702, 180
45.07963, 129, 442, 187, -9.669421, 180
45.09632, 127, 442, 188, -8.92562, 180
45.11637, 125, 442, 190, -7.438016, 180
45.13785, 128, 442, 192, -5.950413, 180
45.15808, 134, 441, 193, -5.206612, 180
45.17965, 125, 441, 193, -5.206612, 180
45.19908, 125, 440, 195, -3.719008, 180
45.21943, 127, 440, 196, -2.975207, 180
45.23727, 122, 440, 197, -2.231405, 180
45.25618, 114, 439, 197, -2.231405, 180
45.27747, 113, 439, 199, -0.7438017, 180
45.29761, 105, 438, 199, -0.7438017, 180
45.31792, 105, 439, 197, -2.231405, 180
45.33845, 100, 440, 196, -2.975207, 180
45.35429, 97, 446, 196, -2.975207, 180
45.37527, 88, 439, 196, -2.975207, 180
45.39684, 85, 439, 197, -2.231405, 180
45.41657, 80, 439, 198, -1.487603, 180
45.43732, 74, 439, 199, -0.7438017, 180
45.45904, 72, 439, 199, -0.7438017, 180
45.47505, 65, 440, 199, -0.7438017, 180
45.49539, 59, 440, 200, 0, 180
45.51428, 53, 440, 200, 0, 180
45.53514, 55, 440, 199, -0.7438017, 180
45.56005, 52, 440, 200, 0, 180
45.57581, 47, 440, 200, 0, 180
45.59734, 39, 441, 200, 0, 180
45.61274, 43, 441, 200, 0, 180
45.63251, 38, 441, 201, 0.7438017, 180
45.65313, 35, 440, 202, 1.487603, 180
45.67442, 33, 441, 203, 2.231405, 180
45.69498, 32, 440, 203, 2.231405, 180
45.71443, 29, 440, 203, 2.231405, 180
45.73084, 29, 441, 203, 2.231405, 180
45.75122, 27, 441, 203, 2.231405, 180
45.77173, 33, 441, 203, 2.231405, 180
45.7925, 33, 441, 203, 2.231405, 180
45.81289, 35, 441, 203, 2.231405, 180
45.83329, 36, 440, 204, 2.975207, 180
45.84961, 41, 440, 203, 2.231405, 180
45.87002, 47, 441, 203, 2.231405, 180
45.89151, 47, 440, 203, 2.231405, 180
45.91368, 55, 440, 203, 2.231405, 180
45.93141, 55, 440, 203, 2.231405, 180
45.95208, 57, 440, 204, 2.975207, 180
45.97306, 63, 439, 204, 2.975207, 180
45.98923, 71, 439, 203, 2.231405, 180
46.00959, 76, 439, 203, 2.231405, 180
46.02966, 77, 437, 203, 2.231405, 180
46.05018, 81, 435, 202, 1.487603, 180
46.07109, 81, 434, 199, -0.7438017, 180
46.09227, 86, 435, 189, -8.181818, 180
46.10785, 89, 445, 160, -29.75207, 180
46.13038, 85, 483, 203, 2.231405, 180
46.14854, 84, 440, 203, 2.231405, 180
46.16905, 96, 439, 204, 2.975207, 180
46.19055, 96, 439, 204, 2.975207, 180
46.21072, 94, 439, 203, 2.231405, 180
46.22742, 99, 439, 203, 2.231405, 180
46.24718, 96, 439, 203, 2.231405, 180
46.2706, 95, 440, 201, 0.7438017, 180
46.29051, 95, 440, 200, 0, 180
46.31321, 96, 441, 200, 0, 180
46.33204, 101, 440, 201, 0.7438017, 180
46.35169, 100, 440, 202, 1.487603, 180
46.36863, 95, 440, 204, 2.975207, 180
46.3884, 93, 441, 204, 2.975207, 180
46.40929, 91, 442, 205, 3.719008, 180
46.43096, 91, 440, 205, 3.719008, 180
46.45017, 90, 441, 205, 3.719008, 180
46.47089, 85, 440, 205, 3.719008, 180
46.48763, 86, 441, 205, 3.719008, 180
46.50809, 84, 440, 205, 3.719008, 180
46.53089, 87, 440, 205, 3.719008, 180
46.54953, 85, 440, 205, 3.719008, 180
46.56972, 87, 440, 205, 3.719008, 180
46.58989, 86, 440, 205, 3.719008, 180
46.60767, 83, 440, 205, 3.719008, 180
46.62422, 85, 441, 205, 3.719008, 180
46.64506, 86, 440, 205, 3.719008, 180
46.66455, 86, 441, 205, 3.719008, 180
46.68494, 85, 441, 205, 3.719008, 180
46.70545, 87, 442, 205, 3.719008, 180
46.72582, 95, 442, 205, 3.719008, 180
46.74416, 101, 443, 205, 3.719008, 180
46.76273, 105, 443, 205, 3.719008, 180
46.78381, 110, 443, 205, 3.719008, 180
46.80372, 112, 443, 205, 3.719008, 180
46.82367, 111, 442, 205, 3.719008, 180
46.84541, 114, 443, 205, 3.719008, 180
46.86225, 111, 442, 205, 3.719008, 180
46.88137, 116, 442, 205, 3.719008, 180
46.90246, 115, 442, 205, 3.719008, 180
46.92261, 113, 442, 205, 3.719008, 180
46.94393, 112, 442, 205, 3.719008, 180
46.96465, 109, 442, 205, 3.719008, 180
46.98398, 113, 443, 205, 3.719008, 180
47.00091, 106, 443, 205, 3.719008, 180
47.02071, 110, 443, 205, 3.719008, 180
47.04107, 104, 444, 205, 3.719008, 180
47.06235, 106, 443, 205, 3.719008, 180
47.08212, 100, 443, 205, 3.719008, 180
47.10263, 95, 443, 205, 3.719008, 180
47.11894, 90, 443, 205, 3.719008, 180
47.1394, 89, 443, 205, 3.719008, 180
47.1608, 82, 443, 205, 3.719008, 180
47.18132, 81, 443, 205, 3.719008, 180
47.20087, 80, 443, 205, 3.719008, 180
47.22149, 76, 443, 205, 3.719008, 180
47.24527, 77, 443, 205, 3.719008, 180
47.26001, 67, 443, 205, 3.719008, 180
47.27913, 69, 443, 205, 3.719008, 180
47.29926, 75, 444, 205, 3.719008, 180
47.31967, 73, 444, 205, 3.719008, 180
47.34, 69, 444, 205, 3.719008, 180
47.36139, 69, 444, 205, 3.719008, 180
47.37902, 79, 445, 205, 3.719008, 180
47.39761, 79, 445, 205, 3.719008, 180
47.41813, 78, 446, 205, 3.719008, 180
47.4383, 72, 445, 209, 6.694215, 180
47.4383: Grabbed object
47.45951, 76, 444, 217, 12.64463, 180
47.48243, 69, 444, 217, 12.64463, 180
47.49763, 72, 445, 217, 12.64463, 180
47.51786, 69, 445, 216, 11.90083, 180
47.53904, 67, 446, 217, 12.64463, 180
47.55995, 66, 450, 204, 2.975207, 180
47.58174, 60, 450, 204, 2.975207, 180
47.6024, 56, 450, 204, 2.975207, 180
47.62086, 51, 451, 204, 2.975207, 180
47.63771, 45, 451, 204, 2.975207, 180
47.65565, 44, 452, 204, 2.975207, 180
47.67574, 45, 452, 204, 2.975207, 180
47.69701, 42, 453, 204, 2.975207, 180
47.71722, 37, 453, 205, 3.719008, 180
47.73741, 33, 454, 205, 3.719008, 180
47.75376, 36, 455, 206, 4.46281, 180
47.77438, 37, 457, 203, 2.231405, 180
47.79866, 33, 457, 205, 3.719008, 180
47.81902, 44, 458, 206, 4.46281, 180
47.83838, 40, 456, 205, 3.719008, 180
47.85893, 38, 456, 205, 3.719008, 180
47.87606, 34, 458, 209, 6.694215, 180
47.89688, 36, 472, 209, 6.694215, 180
47.91588, 38, 455, 213, 9.669421, 180
47.93689, 42, 454, 214, 10.41322, 180
47.9582, 37, 453, 210, 7.438016, 180
47.97584, 34, 454, 209, 6.694215, 180
47.99613, 35, 455, 206, 4.46281, 180
48.01262, 31, 456, 203, 2.231405, 180
48.03494, 30, 458, 199, -0.7438017, 180
48.05357, 26, 460, 187, -9.669421, 180
48.07384, 26, 457, 201, 0.7438017, 180
48.09524, 27, 457, 202, 1.487603, 180
48.11495, 28, 458, 201, 0.7438017, 180
48.13145, 28, 455, 202, 1.487603, 180
48.15178, 24, 457, 185, -11.15702, 180
48.17236, 24, 454, 193, -5.206612, 180
48.19305, 26, 455, 198, -1.487603, 180
48.21341, 31, 456, 195, -3.719008, 180
48.2349, 29, 456, 192, -5.950413, 180
48.25063, 30, 458, 188, -8.92562, 180
48.27065, 28, 458, 186, -10.41322, 180
48.29099, 32, 458, 185, -11.15702, 180
48.31263, 37, 458, 184, -11.90083, 180
48.33218, 36, 457, 183, -12.64463, 180
48.35261, 34, 458, 180, -14.87603, 180
48.37305, 38, 458, 172, -20.82645, 180
48.38948, 45, 457, 176, -17.85124, 180
48.4102, 43, 457, 174, -19.33884, 180
48.43027, 44, 457, 174, -19.33884, 180
48.452, 40, 456, 174, -19.33884, 180
48.47137, 46, 456, 174, -19.33884, 180
48.49164, 43, 455, 174, -19.33884, 180
48.50861, 46, 455, 174, -19.33884, 180
48.52964, 46, 455, 174, -19.33884, 180
48.5491, 43, 454, 174, -19.33884, 180
48.56954, 43, 453, 174, -19.33884, 180
48.5908, 44, 452, 174, -19.33884, 180
48.6111, 47, 451, 174, -19.33884, 180
48.62792, 50, 450, 174, -19.33884, 180
48.64806, 51, 449, 175, -18.59504, 180
48.67003, 55, 447, 175, -18.59504, 180
48.68793, 56, 446, 175, -18.59504, 180
48.7085, 66, 446, 175, -18.59504, 180
48.72975, 68, 445, 175, -18.59504, 180
48.7493, 71, 445, 175, -18.59504, 180
48.76579, 68, 445, 175, -18.59504, 180
48.78601, 72, 445, 175, -18.59504, 180
48.80747, 70, 444, 175, -18.59504, 180
48.82844, 63, 445, 175, -18.59504, 180
48.84774, 64, 444, 175, -18.59504, 180
48.86819, 64, 445, 175, -18.59504, 180
48.88626, 60, 445, 175, -18.59504, 180
48.90586, 53, 445, 175, -18.59504, 180
48.92662, 46, 445, 175, -18.59504, 180
48.94768, 41, 446, 175, -18.59504, 180
48.96685, 36, 446, 175, -18.59504, 180
48.98744, 37, 447, 175, -18.59504, 180
49.00348, 35, 448, 175, -18.59504, 180
49.02356, 35, 448, 175, -18.59504, 180
49.04496, 42, 449, 175, -18.59504, 180
49.06524, 61, 450, 175, -18.59504, 180
49.08575, 58, 450, 175, -18.59504, 180
49.1073, 68, 451, 175, -18.59504, 180
49.12735, 76, 452, 175, -18.59504, 180
49.14331, 85, 453, 174, -19.33884, 180
49.16425, 97, 454, 174, -19.33884, 180
49.18415, 105, 454, 174, -19.33884, 180
49.20447, 118, 455, 174, -19.33884, 180
49.22479, 126, 456, 174, -19.33884, 180
49.24664, 136, 457, 174, -19.33884, 180
49.26273, 141, 458, 174, -19.33884, 180
49.28227, 151, 459, 173, -20.08265, 180
49.3029, 157, 459, 174, -19.33884, 180
49.32453, 165, 459, 174, -19.33884, 180
49.34426, 168, 461, 174, -19.33884, 180
49.36415, 176, 461, 174, -19.33884, 180
49.38062, 176, 460, 174, -19.33884, 180
49.40107, 179, 459, 176, -17.85124, 180
49.42154, 177, 458, 177, -17.10744, 180
49.44215, 173, 456, 178, -16.36364, 180
49.46329, 168, 456, 176, -17.85124, 180
49.48304, 166, 455, 177, -17.10744, 180
49.49944, 154, 456, 174, -19.33884, 180
49.51962, 146, 456, 172, -20.82645, 180
49.54129, 138, 456, 172, -20.82645, 180
49.5614, 138, 455, 172, -20.82645, 180
49.58117, 116, 455, 172, -20.82645, 180
49.60164, 117, 455, 172, -20.82645, 180
49.61819, 124, 455, 172, -20.82645, 180
49.63869, 129, 455, 172, -20.82645, 180
49.6603, 129, 454, 172, -20.82645, 180
49.68108, 109, 454, 172, -20.82645, 180
49.70022, 94, 455, 172, -20.82645, 180
49.72016, 83, 455, 172, -20.82645, 180
49.73824, 76, 455, 172, -20.82645, 180
49.75711, 71, 456, 172, -20.82645, 180
49.77882, 67, 457, 172, -20.82645, 180
49.79788, 66, 457, 172, -20.82645, 180
49.81841, 62, 457, 172, -20.82645, 180
49.83867, 64, 457, 171, -21.57025, 180
49.85542, 58, 458, 171, -21.57025, 180
49.87583, 58, 458, 171, -21.57025, 180
49.89647, 54, 458, 171, -21.57025, 180
49.91943, 53, 459, 171, -21.57025, 180
49.93752, 57, 459, 172, -20.82645, 180
49.95897, 71, 459, 172, -20.82645, 180
49.97953, 83, 460, 171, -21.57025, 180
49.99659, 95, 460, 171, -21.57025, 180
50.01496, 92, 461, 171, -21.57025, 180
50.03522, 79, 460, 175, -18.59504, 180
50.05597, 72, 457, 180, -14.87603, 180
50.07676, 62, 456, 178, -16.36364, 180
50.09735, 59, 456, 177, -17.10744, 180
50.11322, 51, 455, 177, -17.10744, 180
50.13369, 43, 456, 175, -18.59504, 180
50.15406, 39, 456, 172, -20.82645, 180
50.17593, 35, 458, 170, -22.31405, 180
50.19639, 31, 458, 170, -22.31405, 180
50.21563, 31, 459, 168, -23.80165, 180
50.23617, 29, 462, 166, -25.28926, 180
50.25256, 27, 463, 165, -26.03306, 180
50.273, 27, 464, 165, -26.03306, 180
50.29417, 25, 465, 165, -26.03306, 180
50.31392, 28, 466, 165, -26.03306, 180
50.33458, 27, 464, 169, -23.05785, 180
50.35478, 25, 463, 172, -20.82645, 180
50.37223, 22, 466, 158, -31.23967, 180
50.3919, 25, 461, 173, -20.08265, 180
50.41281, 28, 461, 171, -21.57025, 180
50.43271, 26, 465, 158, -31.23967, 180
50.45316, 28, 461, 168, -23.80165, 180
50.47357, 30, 459, 165, -26.03306, 180
50.49009, 34, 459, 169, -23.05785, 180
50.51139, 47, 459, 166, -25.28926, 180
50.53094, 42, 458, 164, -26.77686, 180
50.55201, 43, 459, 161, -29.00826, 180
50.57193, 48, 460, 159, -30.49587, 180
50.59808, 48, 460, 159, -30.49587, 180
50.61309, 50, 461, 158, -31.23967, 180
50.62937, 54, 460, 159, -30.49587, 180
50.64978, 54, 460, 160, -29.75207, 180
50.67018, 57, 459, 161, -29.00826, 180
50.69048, 58, 459, 157, -31.98347, 180
50.71209, 61, 460, 158, -31.23967, 180
50.73537, 64, 460, 157, -31.98347, 180
50.74854, 62, 461, 156, -32.72727, 180
50.76841, 62, 462, 155, -33.47107, 180
50.78901, 60, 463, 154, -34.21487, 180
50.81096, 56, 463, 156, -32.72727, 180
50.83263, 55, 461, 155, -33.47107, 180
50.85281, 51, 462, 157, -31.98347, 180
50.86963, 46, 464, 155, -33.47107, 180
50.88818, 43, 464, 154, -34.21487, 180
50.90924, 39, 462, 153, -34.95868, 180
50.93105, 35, 465, 152, -35.70248, 180
50.94894, 32, 464, 153, -34.95868, 180
50.96933, 31, 463, 154, -34.21487, 180
50.9896, 34, 461, 155, -33.47107, 180
51.00771, 39, 460, 156, -32.72727, 180
51.02792, 39, 458, 154, -34.21487, 180
51.04754, 41, 458, 153, -34.95868, 180
51.06768, 45, 454, 149, -37.93388, 180
51.08799, 50, 456, 148, -38.67768, 180
51.10888, 52, 456, 144, -41.65289, 180
51.10888: Released object
51.12597, 59, 458, 143, -42.39669, 180
51.14628, 62, 457, 142, -43.1405, 180
51.16595, 61, 458, 140, -44.6281, 180
51.18654, 62, 459, 140, -44.6281, 180
51.20747, 64, 459, 140, -44.6281, 180
51.22985, 64, 459, 140, -44.6281, 180
51.2466, 60, 459, 140, -44.6281, 180
51.26565, 58, 459, 140, -44.6281, 180
51.28599, 54, 459, 140, -44.6281, 180
51.30613, 49, 460, 140, -44.6281, 180
51.32723, 47, 461, 139, -45.3719, 180
51.34662, 43, 460, 139, -45.3719, 180
51.36295, 38, 459, 139, -45.3719, 180
51.38295, 37, 459, 139, -45.3719, 180
51.40325, 36, 458, 139, -45.3719, 180
51.42343, 35, 457, 140, -44.6281, 180
51.44643, 32, 456, 139, -45.3719, 180
51.46507, 32, 456, 139, -45.3719, 180
51.4854, 31, 455, 139, -45.3719, 180
51.50164, 31, 455, 139, -45.3719, 180
51.52232, 28, 453, 140, -44.6281, 180
51.54293, 32, 451, 140, -44.6281, 180
51.56308, 35, 449, 140, -44.6281, 180
51.58354, 37, 448, 140, -44.6281, 180
51.60394, 50, 445, 141, -43.8843, 180
51.6204, 67, 443, 141, -43.8843, 180
51.64063, 91, 440, 141, -43.8843, 180
51.66324, 129, 439, 137, -46.8595, 180
51.68191, 160, 436, 132, -50.57851, 180
51.7023, 204, 443, 130, -52.06612, 180
51.72265, 230, 444, 129, -52.80992, 180
51.73922, 274, 438, 128, -53.55372, 180
51.76003, 303, 438, 125, -55.78513, 0
51.78055, 359, 427, 169, -23.05785, 0
51.80094, 359, 431, 145, -40.90909, 0
51.82096, 385, 428, 141, -43.8843, 0
51.84221, 440, 423, 143, -42.39669, 0
51.86031, 489, 419, 147, -39.42149, 0
51.87949, 535, 417, 154, -34.21487, 0
51.89881, 556, 416, 154, -34.21487, 0
51.91954, 579, 415, 154, -34.21487, 0
51.93981, 598, 414, 154, -34.21487, 0
51.96141, 611, 414, 154, -34.21487, 0
51.98135, 630, 413, 154, -34.21487, 0
51.99791, 642, 413, 154, -34.21487, 0
52.01768, 649, 412, 154, -34.21487, 0
52.0382, 644, 411, 154, -34.21487, 0
52.05891, 633, 412, 154, -34.21487, 0
52.08029, 627, 411, 154, -34.21487, 0
52.0996, 609, 411, 154, -34.21487, 0
52.11628, 582, 411, 154, -34.21487, 0
52.13655, 567, 411, 154, -34.21487, 0
52.15755, 558, 411, 154, -34.21487, 0
52.17856, 545, 411, 154, -34.21487, 0
52.19799, 519, 410, 154, -34.21487, 0
52.2185, 509, 410, 154, -34.21487, 0
52.23488, 484, 410, 154, -34.21487, 0
52.25527, 473, 410, 154, -34.21487, 0
52.27678, 452, 410, 154, -34.21487, 0
52.29735, 441, 410, 154, -34.21487, 0
52.31692, 411, 410, 154, -34.21487, 0
52.33768, 389, 410, 154, -34.21487, 0
52.35735, 386, 410, 154, -34.21487, 0
52.37419, 367, 409, 154, -34.21487, 0
52.39528, 343, 409, 154, -34.21487, 0
52.41543, 321, 409, 154, -34.21487, 0
52.43545, 314, 409, 155, -33.47107, 0
52.45577, 292, 408, 155, -33.47107, 0
52.47736, 275, 408, 155, -33.47107, 0
52.49438, 254, 408, 155, -33.47107, 0
52.51323, 245, 409, 155, -33.47107, 0
52.53408, 221, 409, 155, -33.47107, 0
52.55466, 205, 409, 155, -33.47107, 0
52.57446, 195, 409, 155, -33.47107, 0
52.59591, 171, 409, 155, -33.47107, 0
52.61236, 156, 409, 155, -33.47107, 0
52.63231, 154, 408, 155, -33.47107, 0
52.65241, 138, 408, 155, -33.47107, 0
52.67295, 122, 407, 155, -33.47107, 180
52.69632, 99, 422, 128, -53.55372, 180
52.71731, 91, 435, 115, -63.22314, 180
52.73306, 83, 434, 115, -63.22314, 180
52.75282, 68, 437, 122, -58.01653, 180
52.77388, 68, 440, 123, -57.27273, 180
52.79824, 106, 440, 136, -47.60331, 180
52.81261, 163, 444, 147, -39.42149, 180
52.83315, 238, 444, 159, -30.49587, 180
52.84916, 299, 442, 168, -23.80165, 180
52.86942, 349, 442, 174, -19.33884, 0
52.89008, 401, 439, 175, -18.59504, 0
52.91157, 420, 437, 163, -27.52066, 0
52.93431, 436, 436, 153, -34.95868, 0
52.95343, 447, 430, 158, -31.23967, 0
52.97291, 447, 425, 158, -31.23967, 0
52.98892, 424, 423, 165, -26.03306, 0
53.00928, 396, 420, 171, -21.57025, 0
53.02979, 372, 418, 177, -17.10744, 0
53.05141, 344, 418, 179, -15.61983, 0
53.07098, 310, 418, 179, -15.61983, 0
53.09075, 278, 417, 179, -15.61983, 0
53.1082, 253, 418, 179, -15.61983, 0
53.12883, 237, 418, 179, -15.61983, 0
53.1495, 210, 418, 179, -15.61983, 0
53.16875, 208, 418, 179, -15.61983, 0
53.18919, 192, 418, 179, -15.61983, 0
53.20992, 176, 419, 179, -15.61983, 0
53.2277, 157, 418, 179, -15.61983, 0
53.24694, 144, 419, 179, -15.61983, 0
53.26784, 138, 419, 179, -15.61983, 180
53.28789, 118, 422, 161, -29.00826, 180
53.30766, 108, 436, 149, -37.93388, 180
53.32926, 106, 437, 143, -42.39669, 180
53.3472, 117, 438, 149, -37.93388, 180
53.36504, 154, 439, 153, -34.95868, 180
53.38561, 179, 442, 162, -28.26446, 180
53.40617, 219, 443, 169, -23.05785, 180
53.42753, 261, 443, 179, -15.61983, 180
53.44756, 292, 443, 186, -10.41322, 0
53.46343, 327, 439, 193, -5.206612, 0
53.48385, 346, 438, 175, -18.59504, 0
53.51048, 342, 438, 166, -25.28926, 0
53.52496, 340, 435, 164, -26.77686, 0
53.54599, 331, 431, 167, -24.54545, 0
53.56702, 305, 428, 169, -23.05785, 0
53.58464, 273, 425, 172, -20.82645, 0
53.60493, 232, 422, 175, -18.59504, 0
53.62378, 184, 421, 181, -14.13223, 0
53.64751, 147, 419, 185, -11.15702, 0
53.66479, 118, 419, 187, -9.669421, 180
53.68517, 96, 431, 175, -18.59504, 180
53.70587, 82, 430, 158, -31.23967, 180
53.72213, 69, 437, 153, -34.95868, 180
53.74332, 64, 439, 155, -33.47107, 180
53.76363, 61, 455, 163, -27.52066, 180
53.78593, 72, 446, 173, -20.08265, 180
53.80408, 91, 442, 176, -17.85124, 180
53.82454, 106, 443, 187, -9.669421, 180
53.84077, 121, 444, 191, -6.694215, 180
53.86228, 144, 442, 198, -1.487603, 180
53.88241, 152, 440, 203, 2.231405, 180
53.90326, 160, 441, 204, 2.975207, 180
53.92298, 160, 440, 206, 4.46281, 180
53.94368, 164, 440, 207, 5.206612, 180
53.94368: Grabbed object
53.96, 162, 440, 207, 5.206612, 180
53.98055, 154, 441, 208, 5.950413, 180
54.00187, 141, 440, 210, 7.438016, 180
54.0212, 134, 440, 210, 7.438016, 180
54.04076, 120, 439, 210, 7.438016, 180
54.0625, 103, 440, 211, 8.181818, 180
54.07936, 90, 440, 210, 7.438016, 180
54.0982, 78, 439, 210, 7.438016, 180
54.11874, 66, 440, 210, 7.438016, 180
54.13903, 56, 440, 210, 7.438016, 180
54.15966, 51, 439, 210, 7.438016, 180
54.18044, 50, 439, 210, 7.438016, 180
54.2006, 53, 439, 210, 7.438016, 180
54.218, 56, 439, 210, 7.438016, 180
54.23773, 66, 439, 210, 7.438016, 180
54.25799, 72, 439, 210, 7.438016, 180
54.28205, 82, 439, 210, 7.438016, 180
54.30152, 95, 438, 210, 7.438016, 180
54.32185, 112, 437, 210, 7.438016, 180
54.339, 136, 436, 210, 7.438016, 180
54.35885, 158, 434, 209, 6.694215, 180
54.37892, 179, 430, 205, 3.719008, 180
54.39908, 198, 429, 190, -7.438016, 180
54.41925, 208, 448, 152, -35.70248, 180
54.44014, 210, 491, 187, -9.669421, 180
54.45637, 243, 447, 210, 7.438016, 180
54.4767, 264, 446, 210, 7.438016, 180
54.49745, 272, 447, 210, 7.438016, 0
54.51715, 272, 440, 198, -1.487603, 0
54.53902, 269, 435, 171, -21.57025, 0
54.55819, 265, 454, 156, -32.72727, 0
54.5755, 268, 451, 148, -38.67768, 0
54.59548, 283, 449, 144, -41.65289, 0
54.59548: Released object
54.61522, 307, 445, 141, -43.8843, 0
54.63621, 340, 443, 137, -46.8595, 0
54.65769, 383, 438, 140, -44.6281, 0
54.67798, 438, 436, 143, -42.39669, 0
54.69842, 491, 433, 144, -41.65289, 0
54.71429, 548, 432, 145, -40.90909, 0
54.73414, 600, 431, 146, -40.16529, 0
54.75443, 639, 430, 146, -40.16529, 0
54.77529, 665, 436, 146, -40.16529, 0
54.79665, 690, 430, 142, -43.1405, 0
54.8159, 689, 432, 132, -50.57851, 0
54.83239, 693, 430, 139, -45.3719, 0
54.85323, 694, 429, 137, -46.8595, 0
54.8737, 696, 429, 136, -47.60331, 0
54.8929, 696, 430, 134, -49.09091, 0
54.91333, 696, 428, 132, -50.57851, 0
54.93372, 694, 430, 123, -57.27273, 0
54.95038, 695, 428, 125, -55.78513, 0
54.97065, 697, 428, 127, -54.29752, 0
54.99162, 699, 427, 125, -55.78513, 0
55.01334, 702, 426, 127, -54.29752, 0
55.03211, 695, 427, 127, -54.29752, 0
55.05272, 703, 426, 125, -55.78513, 0
55.07304, 699, 434, 127, -54.29752, 0
55.09118, 702, 426, 118, -60.99174, 0
55.11088, 703, 425, 125, -55.78513, 0
55.13055, 692, 423, 125, -55.78513, 0
55.1508, 684, 423, 126, -55.04132, 0
55.17189, 675, 422, 127, -54.29752, 0
55.1932, 665, 422, 128, -53.55372, 0
55.2106, 643, 422, 128, -53.55372, 0
55.23046, 629, 421, 127, -54.29752, 0
55.25003, 610, 421, 128, -53.55372, 0
55.27348, 598, 421, 129, -52.80992, 0
55.29531, 584, 421, 130, -52.06612, 0
55.31451, 571, 420, 130, -52.06612, 0
55.33192, 553, 421, 130, -52.06612, 0
55.35144, 536, 421, 130, -52.06612, 0
55.37071, 532, 420, 130, -52.06612, 0
55.39183, 523, 419, 130, -52.06612, 0
55.41191, 510, 420, 130, -52.06612, 0
55.43098, 494, 420, 130, -52.06612, 0
55.4472, 480, 420, 130, -52.06612, 0
55.46773, 468, 419, 130, -52.06612, 0
55.48857, 467, 419, 130, -52.06612, 0
55.51067, 453, 419, 130, -52.06612, 0
55.53, 437, 418, 130, -52.06612, 0
55.54934, 429, 419, 130, -52.06612, 0
55.56982, 422, 418, 130, -52.06612, 0
55.58663, 413, 419, 130, -52.06612, 0
55.607, 405, 418, 130, -52.06612, 0
55.62793, 391, 418, 130, -52.06612, 0
55.64899, 379, 418, 130, -52.06612, 0
55.66805, 380, 418, 130, -52.06612, 0
55.6884, 374, 418, 130, -52.06612, 0
55.70657, 363, 418, 130, -52.06612, 0
55.72608, 354, 419, 130, -52.06612, 0
55.74686, 353, 419, 130, -52.06612, 0
55.76672, 345, 419, 130, -52.06612, 0
55.78861, 338, 418, 130, -52.06612, 0
55.80783, 325, 419, 130, -52.06612, 0
55.82441, 313, 419, 130, -52.06612, 0
55.84502, 312, 419, 130, -52.06612, 0
55.86715, 304, 419, 130, -52.06612, 0
55.88811, 295, 418, 130, -52.06612, 0
55.90478, 282, 419, 130, -52.06612, 0
55.92741, 283, 419, 130, -52.06612, 0
55.94649, 275, 418, 130, -52.06612, 0
55.96253, 262, 418, 130, -52.06612, 0
55.98222, 259, 418, 130, -52.06612, 0
56.00298, 244, 418, 130, -52.06612, 0
56.02314, 244, 418, 130, -52.06612, 0
56.04491, 235, 417, 130, -52.06612, 0
56.06454, 231, 417, 130, -52.06612, 0
56.08075, 228, 417, 130, -52.06612, 0
56.10104, 224, 417, 130, -52.06612, 0
56.12277, 221, 417, 130, -52.06612, 0
56.14529, 217, 416, 130, -52.06612, 0
56.16439, 217, 416, 130, -52.06612, 0
56.18431, 211, 416, 130, -52.06612, 0
56.20074, 207, 415, 130, -52.06612, 0
56.22165, 207, 415, 130, -52.06612, 0
56.24137, 202, 415, 130, -52.06612, 0
56.26295, 202, 415, 130, -52.06612, 0
56.2833, 192, 415, 130, -52.06612, 0
56.30296, 195, 415, 130, -52.06612, 0
56.31926, 191, 414, 130, -52.06612, 0
56.33989, 190, 414, 130, -52.06612, 0
56.36304, 184, 414, 130, -52.06612, 0
56.38115, 182, 414, 130, -52.06612, 0
56.40124, 168, 414, 130, -52.06612, 0
56.42175, 180, 413, 130, -52.06612, 0
56.43843, 174, 413, 131, -51.32232, 0
56.45851, 169, 413, 131, -51.32232, 0
56.48045, 165, 413, 131, -51.32232, 0
56.49958, 159, 412, 131, -51.32232, 0
56.52011, 155, 411, 131, -51.32232, 0
56.53652, 152, 410, 131, -51.32232, 0
56.55744, 138, 410, 131, -51.32232, 0
56.57945, 138, 409, 132, -50.57851, 180
56.59804, 139, 408, 131, -51.32232, 180
56.61829, 123, 416, 102, -72.89256, 180
56.63947, 112, 428, 90, -81.81818, 180
56.66171, 103, 435, 95, -78.09917, 180
56.67735, 93, 442, 97, -76.61157, 180
56.69749, 79, 441, 108, -68.42975, 180
56.71705, 67, 442, 116, -62.47934, 180
56.73769, 56, 447, 127, -54.29752, 180
56.75944, 51, 443, 136, -47.60331, 180
56.78108, 55, 442, 141, -43.8843, 180
56.79596, 57, 442, 145, -40.90909, 180
56.81486, 56, 441, 149, -37.93388, 180
56.8354, 70, 444, 154, -34.21487, 180
56.85591, 74, 440, 156, -32.72727, 180
56.87722, 80, 440, 157, -31.98347, 180
56.89857, 91, 440, 158, -31.23967, 180
56.91445, 98, 442, 161, -29.00826, 180
56.93248, 114, 442, 165, -26.03306, 180
56.95305, 125, 442, 169, -23.05785, 180
56.97341, 137, 441, 173, -20.08265, 180
56.99591, 158, 441, 174, -19.33884, 180
57.01458, 164, 441, 177, -17.10744, 180
57.03514, 176, 440, 178, -16.36364, 180
57.05168, 183, 442, 180, -14.87603, 180
57.07196, 194, 442, 182, -13.38843, 180
57.09319, 202, 442, 185, -11.15702, 180
57.11281, 215, 441, 188, -8.92562, 180
57.13317, 232, 440, 191, -6.694215, 180
57.14968, 239, 439, 192, -5.950413, 180
57.17008, 243, 439, 193, -5.206612, 180
57.19041, 253, 440, 193, -5.206612, 180
57.2127, 260, 440, 192, -5.950413, 0
57.23261, 257, 440, 190, -7.438016, 0
57.25185, 242, 438, 175, -18.59504, 0
57.27237, 233, 438, 167, -24.54545, 0
57.28868, 218, 433, 165, -26.03306, 0
57.30939, 194, 431, 167, -24.54545, 0
57.32974, 169, 428, 171, -21.57025, 0
57.3502, 139, 425, 168, -23.80165, 0
57.37115, 110, 423, 177, -17.10744, 180
57.39176, 91, 424, 177, -17.10744, 180
57.40866, 80, 432, 159, -30.49587, 180
57.4295, 71, 436, 155, -33.47107, 180
57.44934, 56, 453, 160, -29.75207, 180
57.46896, 57, 443, 165, -26.03306, 180
57.4893, 56, 445, 169, -23.05785, 180
57.5109, 66, 444, 183, -12.64463, 180
57.52758, 74, 445, 189, -8.181818, 180
57.54742, 92, 443, 195, -3.719008, 180
57.56772, 99, 443, 200, 0, 180
57.58817, 112, 440, 204, 2.975207, 180
57.60818, 122, 440, 204, 2.975207, 180
57.63026, 124, 440, 206, 4.46281, 180
57.6464, 130, 441, 206, 4.46281, 180
57.66567, 136, 440, 206, 4.46281, 180
57.686, 137, 441, 207, 5.206612, 180
57.686: Grabbed object
57.707, 139, 441, 206, 4.46281, 180
57.73114, 140, 441, 207, 5.206612, 180
57.75056, 143, 440, 208, 5.950413, 180
57.77094, 141, 440, 209, 6.694215, 180
57.78899, 141, 440, 208, 5.950413, 180
57.80885, 131, 441, 208, 5.950413, 180
57.83033, 126, 441, 207, 5.206612, 180
57.84904, 125, 440, 209, 6.694215, 180
57.87054, 125, 441, 210, 7.438016, 180
57.88942, 115, 440, 210, 7.438016, 180
57.90627, 109, 440, 210, 7.438016, 180
57.93026, 104, 440, 210, 7.438016, 180
57.94581, 99, 441, 210, 7.438016, 180
57.96443, 99, 440, 210, 7.438016, 180
57.98493, 86, 440, 210, 7.438016, 180
58.00556, 78, 441, 210, 7.438016, 180
58.0224, 71, 441, 210, 7.438016, 180
58.04346, 61, 441, 210, 7.438016, 180
58.06378, 59, 441, 210, 7.438016, 180
58.0838, 50, 441, 210, 7.438016, 180
58.10526, 47, 441, 210, 7.438016, 180
58.12442, 43, 442, 210, 7.438016, 180
58.14594, 37, 442, 210, 7.438016, 180
58.16252, 35, 443, 210, 7.438016, 180
58.18233, 32, 442, 210, 7.438016, 180
58.20218, 33, 443, 210, 7.438016, 180
58.2226, 30, 443, 210, 7.438016, 180
58.24525, 30, 443, 210, 7.438016, 180
58.26358, 30, 443, 210, 7.438016, 180
58.28009, 34, 444, 209, 6.694215, 180
58.30038, 33, 443, 210, 7.438016, 180
58.32098, 31, 442, 209, 6.694215, 180
58.3415, 36, 442, 210, 7.438016, 180
58.36261, 34, 440, 209, 6.694215, 180
58.38247, 36, 438, 208, 5.950413, 180
58.39905, 35, 433, 205, 3.719008, 180
58.4192, 33, 430, 196, -2.975207, 180
58.43981, 32, 436, 170, -22.31405, 180
58.46251, 28, 467, 155, -33.47107, 180
58.48092, 24, 492, 209, 6.694215, 180
58.50123, 36, 447, 209, 6.694215, 180
58.52178, 31, 445, 210, 7.438016, 180
58.53949, 28, 445, 209, 6.694215, 180
58.5588, 29, 445, 209, 6.694215, 180
58.57938, 29, 445, 209, 6.694215, 180
58.59945, 27, 445, 209, 6.694215, 180
58.61992, 25, 445, 209, 6.694215, 180
58.64042, 24, 445, 209, 6.694215, 180
58.65791, 25, 446, 209, 6.694215, 180
58.67891, 24, 446, 209, 6.694215, 180
58.69795, 24, 447, 209, 6.694215, 180
58.71836, 23, 448, 209, 6.694215, 180
58.73921, 23, 448, 209, 6.694215, 180
58.75943, 22, 448, 209, 6.694215, 180
58.77969, 21, 448, 209, 6.694215, 180
58.79649, 22, 449, 209, 6.694215, 180
58.8172, 24, 448, 209, 6.694215, 180
58.83749, 23, 449, 209, 6.694215, 180
58.85746, 29, 450, 209, 6.694215, 180
58.88007, 39, 449, 209, 6.694215, 180
58.89841, 44, 450, 209, 6.694215, 180
58.91537, 46, 451, 209, 6.694215, 180
58.93523, 49, 451, 209, 6.694215, 180
58.95675, 49, 451, 209, 6.694215, 180
58.97882, 52, 451, 209, 6.694215, 180
58.99755, 54, 451, 209, 6.694215, 180
59.01749, 53, 452, 209, 6.694215, 180
59.03426, 53, 452, 208, 5.950413, 180
59.05424, 49, 452, 208, 5.950413, 180
59.07506, 56, 452, 208, 5.950413, 180
59.09758, 56, 452, 208, 5.950413, 180
59.11555, 59, 452, 208, 5.950413, 180
59.13617, 63, 453, 208, 5.950413, 180
59.15684, 67, 453, 208, 5.950413, 180
59.1728, 68, 453, 208, 5.950413, 180
59.194, 74, 453, 208, 5.950413, 180
59.21388, 80, 453, 208, 5.950413, 180
59.23433, 86, 453, 208, 5.950413, 180
59.25487, 91, 454, 208, 5.950413, 180
59.27559, 92, 454, 208, 5.950413, 180
59.29337, 96, 454, 208, 5.950413, 180
59.31494, 101, 455, 208, 5.950413, 180
59.33505, 104, 455, 208, 5.950413, 180
59.35571, 106, 455, 208, 5.950413, 180
59.37657, 107, 455, 208, 5.950413, 180
59.39821, 108, 455, 208, 5.950413, 180
59.41734, 115, 455, 208, 5.950413, 180
59.43375, 116, 455, 208, 5.950413, 180
59.45455, 122, 455, 208, 5.950413, 180
59.47446, 118, 454, 208, 5.950413, 180
59.49517, 121, 454, 208, 5.950413, 180
59.51824, 121, 454, 208, 5.950413, 180
59.53422, 129, 453, 208, 5.950413, 180
59.55076, 125, 453, 208, 5.950413, 180
59.57101, 127, 454, 208, 5.950413, 180
59.5916, 124, 453, 208, 5.950413, 180
59.61328, 128, 453, 208, 5.950413, 180
59.63276, 129, 453, 208, 5.950413, 180
59.65292, 128, 453, 208, 5.950413, 180
59.67011, 130, 453, 208, 5.950413, 180
59.69016, 132, 453, 208, 5.950413, 180
59.71106, 131, 454, 208, 5.950413, 180
59.73178, 134, 454, 208, 5.950413, 180
59.75115, 138, 455, 208, 5.950413, 180
59.77179, 136, 455, 208, 5.950413, 180
59.79236, 141, 456, 208, 5.950413, 180
59.80931, 140, 457, 208, 5.950413, 180
59.83052, 142, 457, 208, 5.950413, 180
59.84962, 146, 457, 208, 5.950413, 180
59.8699, 149, 457, 208, 5.950413, 180
59.89034, 153, 457, 208, 5.950413, 180
59.91177, 159, 458, 208, 5.950413, 180
59.92986, 159, 457, 207, 5.206612, 180
59.948, 161, 458, 207, 5.206612, 180
59.96814, 163, 457, 207, 5.206612, 180
59.99047, 170, 458, 208, 5.950413, 180
60.01421, 175, 458, 207, 5.206612, 180
60.03131, 176, 459, 207, 5.206612, 180
60.04676, 176, 460, 207, 5.206612, 180
60.06641, 180, 461, 207, 5.206612, 180
60.08648, 186, 460, 211, 8.181818, 180
60.10654, 193, 457, 216, 11.90083, 180
60.1286, 195, 457, 217, 12.64463, 180
60.14859, 198, 457, 216, 11.90083, 180
60.16401, 191, 458, 214, 10.41322, 180
60.18456, 192, 459, 212, 8.92562, 180
60.20556, 193, 458, 212, 8.92562, 180
60.2256, 192, 457, 212, 8.92562, 180
60.24658, 188, 457, 210, 7.438016, 180
60.26707, 185, 457, 209, 6.694215, 180
60.28304, 180, 458, 207, 5.206612, 180
60.3032, 177, 459, 207, 5.206612, 180
60.32367, 178, 457, 209, 6.694215, 180
60.34552, 174, 455, 211, 8.181818, 180
60.36573, 167, 456, 209, 6.694215, 180
60.3811, 166, 456, 208, 5.950413, 180
60.40163, 160, 456, 206, 4.46281, 180
60.42215, 160, 456, 205, 3.719008, 180
60.44275, 156, 457, 204, 2.975207, 180
60.46304, 148, 458, 203, 2.231405, 180
60.48353, 143, 458, 193, -5.206612, 180
60.49997, 140, 460, 199, -0.7438017, 180
60.52026, 147, 460, 200, 0, 180
60.54077, 139, 458, 202, 1.487603, 180
60.56248, 140, 459, 202, 1.487603, 180
60.5826, 133, 462, 184, -11.90083, 180
60.60228, 131, 455, 201, 0.7438017, 180
60.6231, 124, 456, 199, -0.7438017, 180
60.63906, 124, 456, 195, -3.719008, 180
60.65946, 121, 455, 193, -5.206612, 180
60.67995, 118, 457, 190, -7.438016, 180
60.70144, 110, 458, 187, -9.669421, 180
60.72123, 107, 458, 183, -12.64463, 180
60.74129, 108, 460, 178, -16.36364, 180
60.75788, 106, 460, 178, -16.36364, 180
60.77947, 108, 460, 178, -16.36364, 180
60.79968, 110, 460, 178, -16.36364, 180
60.82203, 110, 460, 178, -16.36364, 180
60.84291, 109, 461, 178, -16.36364, 180
60.86375, 114, 461, 178, -16.36364, 180
60.88342, 111, 462, 178, -16.36364, 180
60.89959, 114, 462, 183, -12.64463, 180
60.92066, 113, 460, 181, -14.13223, 180
60.94088, 110, 459, 182, -13.38843, 180
60.96108, 104, 459, 178, -16.36364, 180
60.98388, 100, 459, 180, -14.87603, 180
61.00118, 105, 459, 180, -14.87603, 180
61.01701, 103, 458, 181, -14.13223, 180
61.03896, 106, 458, 180, -14.87603, 180
61.06023, 100, 459, 178, -16.36364, 180
61.07937, 97, 460, 180, -14.87603, 180
61.09846, 99, 459, 180, -14.87603, 180
61.1204, 100, 459, 179, -15.61983, 180
61.13662, 110, 459, 180, -14.87603, 180
61.16252, 107, 460, 178, -16.36364, 180
61.17871, 113, 461, 176, -17.85124, 180
61.19734, 114, 461, 178, -16.36364, 180
61.21835, 112, 470, 178, -16.36364, 180
61.23882, 122, 459, 183, -12.64463, 180
61.25943, 128, 457, 184, -11.90083, 180
61.27651, 123, 455, 182, -13.38843, 180
61.2967, 118, 457, 181, -14.13223, 180
61.31562, 118, 457, 178, -16.36364, 180
61.3363, 116, 456, 176, -17.85124, 180
61.35696, 111, 457, 173, -20.08265, 180
61.37729, 112, 458, 170, -22.31405, 180
61.39372, 107, 458, 170, -22.31405, 180
61.41363, 105, 460, 165, -26.03306, 180
61.43492, 103, 461, 165, -26.03306, 180
61.45453, 107, 462, 165, -26.03306, 180
61.47484, 108, 462, 165, -26.03306, 180
61.49666, 107, 462, 165, -26.03306, 180
61.51307, 105, 462, 165, -26.03306, 180
61.53259, 102, 460, 165, -26.03306, 180
61.55311, 100, 460, 165, -26.03306, 180
61.57815, 101, 460, 165, -26.03306, 180
61.59565, 99, 459, 165, -26.03306, 180
61.6143, 97, 459, 165, -26.03306, 180
61.63646, 94, 460, 165, -26.03306, 180
61.65351, 93, 461, 165, -26.03306, 180
61.67268, 92, 461, 165, -26.03306, 180
61.69268, 87, 461, 165, -26.03306, 180
61.71362, 86, 461, 165, -26.03306, 180
61.73304, 93, 461, 165, -26.03306, 180
61.7536, 88, 461, 165, -26.03306, 180
61.77124, 92, 461, 165, -26.03306, 180
61.79076, 90, 461, 165, -26.03306, 180
61.81135, 93, 461, 165, -26.03306, 180
61.83113, 95, 461, 165, -26.03306, 180
61.85263, 94, 461, 165, -26.03306, 180
61.87165, 99, 462, 165, -26.03306, 180
61.88841, 100, 462, 165, -26.03306, 180
61.90938, 103, 463, 165, -26.03306, 180
61.93015, 104, 463, 165, -26.03306, 180
61.95013, 107, 464, 165, -26.03306, 180
61.97081, 114, 464, 165, -26.03306, 180
61.99092, 115, 465, 165, -26.03306, 180
62.01285, 117, 466, 165, -26.03306, 180
62.02876, 121, 466, 164, -26.77686, 180
62.04971, 124, 467, 165, -26.03306, 180
62.07082, 128, 468, 164, -26.77686, 180
62.09093, 135, 469, 165, -26.03306, 180
62.11012, 132, 470, 165, -26.03306, 180
62.13007, 130, 471, 165, -26.03306, 180
62.14684, 133, 471, 168, -23.80165, 180
62.16726, 136, 468, 174, -19.33884, 180
62.1885, 136, 465, 177, -17.10744, 180
62.2077, 145, 464, 177, -17.10744, 180
62.22915, 131, 462, 176, -17.85124, 180
62.25038, 118, 472, 174, -19.33884, 180
62.26807, 114, 460, 172, -20.82645, 180
62.28602, 105, 459, 168, -23.80165, 180
62.30781, 94, 473, 166, -25.28926, 180
62.32812, 94, 460, 164, -26.77686, 180
62.34826, 83, 460, 161, -29.00826, 180
62.36708, 78, 461, 159, -30.49587, 180
62.38848, 75, 462, 155, -33.47107, 180
62.40583, 70, 463, 155, -33.47107, 180
62.42493, 66, 463, 155, -33.47107, 180
62.44669, 63, 462, 154, -34.21487, 180
62.46757, 57, 460, 154, -34.21487, 180
62.48714, 49, 463, 154, -34.21487, 180
62.50642, 46, 458, 150, -37.19008, 180
62.52353, 41, 458, 150, -37.19008, 180
62.54466, 37, 456, 150, -37.19008, 180
62.56424, 35, 455, 150, -37.19008, 180
62.5849, 31, 455, 151, -36.44628, 180
62.60604, 27, 455, 151, -36.44628, 180
62.62642, 27, 455, 151, -36.44628, 180
62.64423, 25, 455, 151, -36.44628, 180
62.66345, 25, 454, 150, -37.19008, 180
62.68356, 25, 455, 150, -37.19008, 180
62.70498, 24, 454, 150, -37.19008, 180
62.7241, 24, 454, 151, -36.44628, 180
62.74653, 22, 454, 150, -37.19008, 180
62.76596, 27, 455, 150, -37.19008, 180
62.78194, 30, 456, 150, -37.19008, 180
62.80187, 32, 456, 150, -37.19008, 180
62.82212, 30, 456, 151, -36.44628, 180
62.84324, 29, 456, 150, -37.19008, 180
62.86304, 36, 457, 150, -37.19008, 180
62.88337, 42, 458, 150, -37.19008, 180
62.90073, 44, 459, 150, -37.19008, 180
62.92279, 52, 461, 150, -37.19008, 180
62.94119, 62, 462, 150, -37.19008, 180
62.96345, 65, 464, 150, -37.19008, 180
62.98291, 75, 465, 150, -37.19008, 180
63.00307, 95, 466, 150, -37.19008, 180
63.021, 98, 467, 152, -35.70248, 180
63.04016, 131, 468, 154, -34.21487, 180
63.06062, 146, 468, 155, -33.47107, 180
63.08034, 148, 469, 156, -32.72727, 180
63.10173, 153, 475, 156, -32.72727, 180
63.12335, 173, 462, 162, -28.26446, 180
63.13831, 182, 460, 161, -29.00826, 180
63.15784, 192, 459, 160, -29.75207, 180
63.18133, 185, 458, 155, -33.47107, 180
63.20056, 182, 459, 151, -36.44628, 180
63.22092, 185, 459, 147, -39.42149, 180
63.24168, 196, 459, 145, -40.90909, 180
63.24168: Released object
63.25834, 188, 459, 143, -42.39669, 180
63.27823, 183, 461, 140, -44.6281, 180
63.29821, 181, 462, 138, -46.1157, 180
63.31889, 180, 462, 137, -46.8595, 180
63.34004, 182, 462, 132, -50.57851, 180
63.35992, 170, 460, 135, -48.34711, 180
63.37769, 162, 458, 134, -49.09091, 180
63.39689, 154, 456, 133, -49.83471, 180
63.41766, 148, 455, 133, -49.83471, 180
63.43801, 134, 453, 134, -49.09091, 180
63.45784, 119, 451, 134, -49.09091, 180
63.4794, 105, 450, 135, -48.34711, 180
63.4964, 92, 448, 134, -49.09091, 180
63.51559, 74, 447, 135, -48.34711, 180
63.53638, 63, 447, 135, -48.34711, 180
63.55701, 60, 445, 135, -48.34711, 180
63.57717, 54, 444, 135, -48.34711, 180
63.59719, 55, 444, 135, -48.34711, 180
63.61765, 57, 443, 135, -48.34711, 180
63.63351, 70, 443, 135, -48.34711, 180
63.65415, 78, 442, 136, -47.60331, 180
63.67425, 87, 442, 135, -48.34711, 180
63.69627, 91, 448, 135, -48.34711, 180
63.71661, 103, 442, 132, -50.57851, 180
63.73663, 110, 442, 131, -51.32232, 180
63.75427, 130, 442, 130, -52.06612, 180
63.77284, 135, 441, 129, -52.80992, 180
63.79357, 157, 442, 128, -53.55372, 180
63.81392, 180, 441, 127, -54.29752, 180
63.83482, 200, 441, 126, -55.04132, 180
63.85466, 234, 440, 127, -54.29752, 180
63.87172, 253, 440, 127, -54.29752, 180
63.89145, 282, 438, 126, -55.04132, 0
63.91413, 329, 431, 163, -27.52066, 0
63.93235, 347, 429, 142, -43.1405, 0
63.95383, 384, 425, 140, -44.6281, 0
63.97415, 434, 420, 144, -41.65289, 0
63.99295, 491, 417, 150, -37.19008, 0
64.01163, 542, 415, 152, -35.70248, 0
64.03152, 581, 412, 153, -34.95868, 0
64.05228, 617, 409, 153, -34.95868, 0
64.07256, 656, 407, 154, -34.21487, 0
64.09283, 700, 406, 154, -34.21487, 0
64.11082, 720, 405, 153, -34.95868, 0
64.13125, 722, 405, 153, -34.95868, 0
64.15, 722, 405, 154, -34.21487, 0
64.17148, 722, 405, 154, -34.21487, 0
64.19168, 722, 405, 154, -34.21487, 0
64.2123, 710, 406, 154, -34.21487, 0
64.23203, 688, 406, 154, -34.21487, 0
64.24897, 679, 406, 153, -34.95868, 0
64.26797, 657, 406, 153, -34.95868, 0
64.28938, 628, 406, 153, -34.95868, 0
64.31027, 595, 406, 153, -34.95868, 0
64.33048, 575, 407, 154, -34.21487, 0
64.35081, 539, 407, 153, -34.95868, 0
64.36777, 512, 408, 153, -34.95868, 0
64.38786, 484, 407, 153, -34.95868, 0
64.41009, 456, 408, 153, -34.95868, 0
64.42985, 429, 408, 153, -34.95868, 0
64.44907, 396, 407, 153, -34.95868, 0
64.46954, 364, 407, 153, -34.95868, 0
64.48643, 337, 407, 153, -34.95868, 0
64.50684, 305, 407, 153, -34.95868, 0
64.52695, 273, 407, 153, -34.95868, 0
64.54765, 249, 407, 153, -34.95868, 0
64.56805, 222, 406, 153, -34.95868, 0
64.58759, 192, 406, 153, -34.95868, 0
64.60382, 168, 406, 153, -34.95868, 0
64.62544, 149, 406, 153, -34.95868, 0
64.64676, 123, 406, 153, -34.95868, 180
64.66644, 90, 438, 153, -34.95868, 180
64.68707, 82, 422, 124, -56.52893, 180
64.7076, 70, 430, 112, -65.45454, 180
64.72814, 64, 434, 114, -63.96694, 180
64.74638, 59, 438, 120, -59.50413, 180
64.76434, 77, 439, 127, -54.29752, 180
64.78426, 87, 444, 127, -54.29752, 180
64.80482, 129, 448, 146, -40.16529, 180
64.82729, 195, 446, 152, -35.70248, 180
64.84691, 258, 443, 166, -25.28926, 180
64.86316, 331, 442, 173, -20.08265, 0
64.88257, 374, 439, 172, -20.82645, 0
64.90286, 405, 437, 161, -29.00826, 0
64.92325, 431, 438, 150, -37.19008, 0
64.94456, 431, 432, 151, -36.44628, 0
64.96463, 428, 427, 158, -31.23967, 0
64.98106, 398, 424, 161, -29.00826, 0
65.00119, 349, 420, 167, -24.54545, 0
65.02205, 305, 418, 173, -20.08265, 0
65.04403, 266, 418, 177, -17.10744, 0
65.06316, 228, 417, 176, -17.85124, 0
65.08312, 192, 417, 176, -17.85124, 0
65.09927, 157, 417, 176, -17.85124, 0
65.11988, 134, 417, 176, -17.85124, 0
65.14018, 109, 417, 176, -17.85124, 180
65.16228, 84, 424, 153, -34.95868, 180
65.18121, 68, 431, 139, -45.3719, 180
65.20188, 62, 436, 143, -42.39669, 180
65.22275, 53, 442, 147, -39.42149, 180
65.24066, 64, 445, 154, -34.21487, 180
65.25932, 81, 443, 161, -29.00826, 180
65.27976, 118, 444, 168, -23.80165, 180
65.2999, 157, 443, 176, -17.85124, 180
65.32055, 196, 442, 184, -11.90083, 180
65.34093, 235, 441, 190, -7.438016, 180
65.35785, 276, 441, 191, -6.694215, 180
65.37895, 307, 440, 191, -6.694215, 0
65.39837, 332, 439, 191, -6.694215, 0
65.41889, 343, 437, 177, -17.10744, 0
65.43916, 343, 442, 171, -21.57025, 0
65.46259, 340, 434, 167, -24.54545, 0
65.4803, 315, 430, 169, -23.05785, 0
65.49895, 282, 427, 173, -20.08265, 0
65.51938, 235, 424, 176, -17.85124, 0
65.54006, 192, 423, 179, -15.61983, 0
65.56055, 157, 421, 184, -11.90083, 0
65.58217, 123, 421, 186, -10.41322, 0
65.59839, 104, 420, 187, -9.669421, 180
65.61784, 90, 425, 173, -20.08265, 180
65.63908, 78, 433, 160, -29.75207, 180
65.65876, 70, 440, 158, -31.23967, 180
65.68194, 60, 439, 157, -31.98347, 180
65.69986, 58, 442, 167, -24.54545, 180
65.71847, 63, 442, 172, -20.82645, 180
65.73484, 79, 444, 183, -12.64463, 180
65.75653, 99, 443, 188, -8.92562, 180
65.777, 128, 443, 195, -3.719008, 180
65.79618, 153, 441, 201, 0.7438017, 180
65.81655, 177, 441, 205, 3.719008, 180
65.83723, 190, 440, 205, 3.719008, 180
65.85536, 210, 439, 207, 5.206612, 180
65.85536: Grabbed object
65.87379, 214, 439, 208, 5.950413, 180
65.89944, 217, 440, 208, 5.950413, 180
65.91503, 226, 439, 210, 7.438016, 180
65.93652, 218, 439, 211, 8.181818, 180
65.9562, 212, 439, 211, 8.181818, 180
65.97379, 209, 439, 211, 8.181818, 180
65.99369, 198, 439, 211, 8.181818, 180
66.01503, 188, 438, 211, 8.181818, 180
66.0354, 179, 438, 211, 8.181818, 180
66.0553, 174, 438, 211, 8.181818, 180
66.07555, 157, 438, 212, 8.92562, 180
66.09517, 142, 439, 211, 8.181818, 180
66.11486, 128, 438, 211, 8.181818, 180
66.13284, 120, 438, 211, 8.181818, 180
66.1554, 102, 438, 211, 8.181818, 180
66.17326, 90, 438, 211, 8.181818, 180
66.19397, 74, 439, 211, 8.181818, 180
66.21143, 62, 438, 211, 8.181818, 180
66.23114, 53, 439, 211, 8.181818, 180
66.25072, 47, 438, 211, 8.181818, 180
66.27084, 44, 439, 211, 8.181818, 180
66.29195, 45, 439, 211, 8.181818, 180
66.31378, 44, 439, 211, 8.181818, 180
66.33098, 55, 440, 211, 8.181818, 180
66.3498, 65, 440, 211, 8.181818, 180
66.37, 70, 441, 211, 8.181818, 180
66.39053, 76, 444, 211, 8.181818, 180
66.41151, 92, 439, 223, 17.10744, 180
66.43153, 104, 440, 223, 17.10744, 180
66.4515, 113, 445, 210, 7.438016, 180
66.46774, 119, 445, 210, 7.438016, 180
66.48865, 119, 444, 210, 7.438016, 180
66.509, 119, 444, 210, 7.438016, 180
66.53101, 118, 443, 210, 7.438016, 180
66.55016, 108, 439, 208, 5.950413, 180
66.56989, 103, 436, 203, 2.231405, 180
66.58837, 90, 435, 190, -7.438016, 180
66.60729, 76, 448, 154, -34.21487, 180
66.62996, 57, 490, 158, -31.23967, 180
66.64806, 52, 495, 210, 7.438016, 180
66.66984, 63, 450, 210, 7.438016, 180
66.68922, 48, 450, 210, 7.438016, 180
66.70744, 45, 451, 209, 6.694215, 180
66.72646, 40, 452, 209, 6.694215, 180
66.74759, 34, 453, 209, 6.694215, 180
66.76675, 32, 454, 209, 6.694215, 180
66.78709, 31, 455, 209, 6.694215, 180
66.80836, 30, 455, 209, 6.694215, 180
66.82934, 32, 455, 209, 6.694215, 180
66.84647, 34, 456, 209, 6.694215, 180
66.86462, 40, 456, 209, 6.694215, 180
66.88559, 43, 457, 209, 6.694215, 180
66.90563, 47, 458, 209, 6.694215, 180
66.9261, 55, 457, 211, 8.181818, 180
66.94855, 62, 456, 213, 9.669421, 180
66.96439, 68, 457, 212, 8.92562, 180
66.98352, 69, 456, 213, 9.669421, 180
67.00404, 69, 456, 213, 9.669421, 180
67.02444, 74, 455, 214, 10.41322, 180
67.04658, 68, 456, 210, 7.438016, 180
67.06532, 68, 455, 210, 7.438016, 180
67.08157, 63, 456, 208, 5.950413, 180
67.10261, 64, 457, 207, 5.206612, 180
67.12292, 60, 458, 206, 4.46281, 180
67.14385, 58, 458, 206, 4.46281, 180
67.1638, 57, 458, 205, 3.719008, 180
67.18491, 59, 458, 205, 3.719008, 180
67.2045, 57, 459, 204, 2.975207, 180
67.2209, 54, 459, 205, 3.719008, 180
67.24128, 53, 459, 205, 3.719008, 180
67.26253, 54, 458, 207, 5.206612, 180
67.28347, 56, 459, 204, 2.975207, 180
67.30274, 54, 460, 204, 2.975207, 180
67.32285, 50, 460, 204, 2.975207, 180
67.34029, 51, 461, 204, 2.975207, 180
67.36086, 48, 461, 204, 2.975207, 180
67.38064, 46, 462, 204, 2.975207, 180
67.40173, 48, 461, 204, 2.975207, 180
67.4213, 44, 461, 206, 4.46281, 180
67.44233, 39, 460, 209, 6.694215, 180
67.46284, 34, 459, 210, 7.438016, 180
67.48078, 33, 457, 212, 8.92562, 180
67.49941, 30, 457, 210, 7.438016, 180
67.51983, 28, 457, 208, 5.950413, 180
67.54024, 25, 458, 198, -1.487603, 180
67.56152, 26, 458, 206, 4.46281, 180
67.58131, 31, 458, 207, 5.206612, 180
67.59879, 29, 457, 209, 6.694215, 180
67.6191, 29, 457, 210, 7.438016, 180
67.63903, 27, 455, 203, 2.231405, 180
67.65989, 25, 454, 208, 5.950413, 180
67.68078, 24, 457, 208, 5.950413, 180
67.69984, 23, 458, 206, 4.46281, 180
67.71687, 26, 457, 201, 0.7438017, 180
67.73712, 26, 459, 203, 2.231405, 180
67.75817, 22, 460, 203, 2.231405, 180
67.77885, 25, 470, 202, 1.487603, 180
67.79846, 28, 455, 203, 2.231405, 180
67.8198, 30, 455, 203, 2.231405, 180
67.83892, 27, 457, 199, -0.7438017, 180
67.85561, 30, 455, 198, -1.487603, 180
67.87625, 26, 473, 194, -4.46281, 180
67.89889, 28, 458, 191, -6.694215, 180
67.91914, 30, 459, 189, -8.181818, 180
67.94041, 29, 459, 187, -9.669421, 180
67.95891, 27, 458, 176, -17.85124, 180
67.97559, 31, 459, 185, -11.15702, 180
67.99998, 26, 468, 182, -13.38843, 180
68.01808, 30, 459, 181, -14.13223, 180
68.03816, 29, 458, 181, -14.13223, 180
68.05652, 29, 455, 180, -14.87603, 180
68.078, 28, 455, 180, -14.87603, 180
68.09485, 30, 457, 176, -17.85124, 180
68.11448, 28, 457, 174, -19.33884, 180
68.13477, 29, 457, 173, -20.08265, 180
68.15502, 27, 456, 173, -20.08265, 180
68.17721, 29, 456, 173, -20.08265, 180
68.19686, 26, 456, 171, -21.57025, 180
68.21647, 26, 458, 167, -24.54545, 180
68.23345, 23, 458, 167, -24.54545, 180
68.25285, 23, 457, 167, -24.54545, 180
68.27376, 22, 457, 167, -24.54545, 180
68.29553, 23, 457, 167, -24.54545, 180
68.31608, 23, 457, 167, -24.54545, 180
68.33545, 23, 458, 167, -24.54545, 180
68.35144, 23, 459, 167, -24.54545, 180
68.37203, 24, 459, 167, -24.54545, 180
68.39248, 29, 460, 167, -24.54545, 180
68.41326, 30, 461, 167, -24.54545, 180
68.43327, 29, 461, 167, -24.54545, 180
68.45509, 32, 461, 169, -23.05785, 180
68.47021, 32, 464, 171, -21.57025, 180
68.49061, 35, 460, 171, -21.57025, 180
68.51208, 40, 459, 172, -20.82645, 180
68.53152, 46, 462, 167, -24.54545, 180
68.55197, 48, 463, 168, -23.80165, 180
68.57235, 53, 463, 169, -23.05785, 180
68.59314, 60, 462, 167, -24.54545, 180
68.61016, 62, 462, 170, -22.31405, 180
68.62979, 68, 462, 170, -22.31405, 180
68.6523, 70, 463, 168, -23.80165, 180
68.6741, 72, 462, 169, -23.05785, 180
68.69575, 75, 462, 160, -29.75207, 180
68.71412, 79, 463, 167, -24.54545, 180
68.73069, 79, 462, 168, -23.80165, 180
68.75037, 81, 460, 168, -23.80165, 180
68.77089, 75, 461, 166, -25.28926, 180
68.79142, 76, 460, 164, -26.77686, 180
68.81229, 80, 462, 163, -27.52066, 180
68.83221, 80, 458, 162, -28.26446, 180
68.85276, 80, 460, 163, -27.52066, 180
68.87227, 81, 460, 161, -29.00826, 180
68.88892, 77, 461, 159, -30.49587, 180
68.90884, 84, 463, 149, -37.93388, 180
68.92991, 84, 463, 156, -32.72727, 180
68.94928, 83, 464, 155, -33.47107, 180
68.96994, 88, 463, 156, -32.72727, 180
68.98641, 91, 464, 155, -33.47107, 180
69.00793, 96, 464, 154, -34.21487, 180
69.02847, 98, 465, 152, -35.70248, 180
69.048, 105, 465, 152, -35.70248, 180
69.06903, 99, 466, 150, -37.19008, 180
69.08967, 107, 466, 151, -36.44628, 180
69.10567, 116, 465, 153, -34.95868, 180
69.12592, 120, 464, 155, -33.47107, 180
69.14683, 119, 461, 147, -39.42149, 180
69.1669, 120, 460, 156, -32.72727, 180
69.18739, 132, 459, 153, -34.95868, 180
69.20754, 124, 458, 152, -35.70248, 180
69.22437, 119, 457, 150, -37.19008, 180
69.24494, 110, 458, 147, -39.42149, 180
69.26472, 104, 459, 144, -41.65289, 180
69.26472: Released object
69.28655, 103, 457, 143, -42.39669, 180
69.30668, 101, 460, 139, -45.3719, 180
69.32671, 94, 460, 139, -45.3719, 180
69.34728, 99, 460, 139, -45.3719, 180
69.36371, 105, 460, 139, -45.3719, 180
69.38336, 107, 461, 139, -45.3719, 180
69.40401, 107, 461, 139, -45.3719, 180
69.42424, 109, 461, 139, -45.3719, 180
69.4461, 110, 461, 139, -45.3719, 180
69.46564, 117, 462, 139, -45.3719, 180
69.48175, 114, 462, 139, -45.3719, 180
69.50213, 122, 463, 139, -45.3719, 180
69.52375, 115, 462, 139, -45.3719, 180
69.54368, 117, 462, 139, -45.3719, 180
69.56361, 119, 462, 139, -45.3719, 180
69.58401, 121, 462, 139, -45.3719, 180
69.60062, 123, 462, 139, -45.3719, 180
69.62094, 119, 463, 139, -45.3719, 180
69.6413, 119, 462, 139, -45.3719, 180
69.66424, 120, 462, 139, -45.3719, 180
69.6843, 125, 461, 139, -45.3719, 180
69.70512, 127, 459, 139, -45.3719, 180
69.72791, 119, 458, 139, -45.3719, 180
69.74369, 114, 457, 139, -45.3719, 180
69.7631, 106, 456, 139, -45.3719, 180
69.78282, 106, 453, 139, -45.3719, 180
69.80348, 89, 450, 140, -44.6281, 180
69.8236, 75, 447, 140, -44.6281, 180
69.84411, 77, 445, 141, -43.8843, 180
69.86179, 64, 443, 140, -44.6281, 180
69.88159, 62, 441, 138, -46.1157, 180
69.9015, 69, 441, 137, -46.8595, 180
69.92188, 89, 440, 135, -48.34711, 180
69.9444, 107, 440, 133, -49.83471, 180
69.96404, 142, 440, 132, -50.57851, 180
69.98055, 164, 440, 131, -51.32232, 180
69.99989, 174, 442, 132, -50.57851, 180
70.02126, 187, 442, 134, -49.09091, 180
70.04166, 200, 442, 129, -52.80992, 180
70.06001, 208, 441, 136, -47.60331, 180
70.08022, 204, 443, 141, -43.8843, 180
70.09693, 196, 450, 145, -40.90909, 180
70.11712, 192, 450, 149, -37.93388, 180
70.1377, 194, 440, 152, -35.70248, 180
70.15954, 179, 441, 153, -34.95868, 180
70.17914, 184, 440, 154, -34.21487, 180
70.1984, 181, 440, 152, -35.70248, 180
70.21487, 177, 443, 144, -41.65289, 180
70.23525, 173, 441, 152, -35.70248, 180
70.25587, 171, 441, 151, -36.44628, 180
70.2769, 162, 449, 152, -35.70248, 180
70.29799, 160, 442, 153, -34.95868, 180
70.31807, 157, 440, 154, -34.21487, 180
70.33443, 143, 442, 155, -33.47107, 180
70.35456, 149, 442, 156, -32.72727, 180
70.3777, 142, 442, 160, -29.75207, 180
70.39659, 139, 441, 162, -28.26446, 180
70.41566, 135, 440, 163, -27.52066, 180
70.43594, 133, 441, 164, -26.77686, 180
70.45221, 129, 441, 164, -26.77686, 180
70.47327, 124, 445, 162, -28.26446, 180
70.4942, 124, 441, 164, -26.77686, 180
70.51391, 121, 440, 162, -28.26446, 180
70.53489, 116, 441, 166, -25.28926, 180
70.55492, 116, 442, 167, -24.54545, 180
70.57692, 115, 441, 168, -23.80165, 180
70.59319, 103, 441, 170, -22.31405, 180
70.61301, 106, 441, 174, -19.33884, 180
70.63255, 105, 440, 175, -18.59504, 180
70.65317, 96, 440, 177, -17.10744, 180
70.67345, 100, 441, 178, -16.36364, 180
70.69508, 90, 443, 169, -23.05785, 180
70.71142, 82, 450, 178, -16.36364, 180
70.73088, 81, 440, 179, -15.61983, 180
70.75146, 72, 442, 180, -14.87603, 180
70.7718, 64, 442, 175, -18.59504, 180
70.79331, 62, 442, 180, -14.87603, 180
70.81292, 62, 442, 183, -12.64463, 180
70.83041, 55, 442, 187, -9.669421, 180
70.84972, 54, 441, 190, -7.438016, 180
70.87028, 47, 440, 192, -5.950413, 180
70.89054, 46, 444, 188, -8.92562, 180
70.91184, 50, 439, 195, -3.719008, 180
70.93162, 41, 449, 195, -3.719008, 180
70.95223, 40, 440, 195, -3.719008, 180
70.96857, 41, 440, 195, -3.719008, 180
70.98888, 33, 441, 195, -3.719008, 180
71.0143, 30, 441, 196, -2.975207, 180
71.0303, 29, 441, 197, -2.231405, 180
71.05063, 30, 441, 198, -1.487603, 180
71.07134, 35, 442, 199, -0.7438017, 180
71.08758, 32, 441, 199, -0.7438017, 180
71.10809, 30, 441, 201, 0.7438017, 180
71.12929, 30, 441, 203, 2.231405, 180
71.14853, 33, 441, 204, 2.975207, 180
71.16911, 33, 440, 206, 4.46281, 180
71.18964, 36, 441, 206, 4.46281, 180
71.20745, 36, 441, 203, 2.231405, 180
71.22765, 39, 440, 206, 4.46281, 180
71.24742, 39, 440, 205, 3.719008, 180
71.2674, 38, 440, 205, 3.719008, 180
71.28793, 46, 440, 204, 2.975207, 180
71.3087, 43, 440, 205, 3.719008, 180
71.32941, 44, 440, 204, 2.975207, 180
71.34617, 44, 440, 205, 3.719008, 180
71.3661, 46, 440, 207, 5.206612, 180
71.3661: Grabbed object
71.38921, 48, 440, 208, 5.950413, 180
71.40697, 46, 439, 211, 8.181818, 180
71.42984, 48, 439, 210, 7.438016, 180
71.44789, 48, 439, 209, 6.694215, 180
71.46413, 54, 439, 211, 8.181818, 180
71.48448, 54, 438, 211, 8.181818, 180
71.50513, 60, 439, 211, 8.181818, 180
71.52679, 65, 438, 211, 8.181818, 180
71.54662, 69, 438, 211, 8.181818, 180
71.56685, 78, 438, 211, 8.181818, 180
71.5853, 79, 438, 211, 8.181818, 180
71.60595, 90, 438, 210, 7.438016, 180
71.6245, 96, 439, 209, 6.694215, 180
71.64739, 101, 439, 209, 6.694215, 180
71.6656, 107, 439, 208, 5.950413, 180
71.68602, 115, 439, 209, 6.694215, 180
71.70662, 124, 439, 211, 8.181818, 180
71.72297, 128, 439, 211, 8.181818, 180
71.74374, 134, 439, 211, 8.181818, 180
71.76599, 150, 439, 211, 8.181818, 180
71.78629, 153, 439, 211, 8.181818, 180
71.80677, 168, 439, 211, 8.181818, 180
71.82851, 174, 439, 211, 8.181818, 180
71.84682, 180, 439, 211, 8.181818, 180
71.86482, 194, 439, 211, 8.181818, 180
71.883, 202, 439, 211, 8.181818, 180
71.90295, 196, 440, 211, 8.181818, 180
71.92332, 215, 440, 211, 8.181818, 180
71.94471, 222, 440, 211, 8.181818, 180
71.96098, 235, 441, 211, 8.181818, 180
71.98083, 245, 442, 211, 8.181818, 180
72.00124, 250, 443, 211, 8.181818, 180
72.0219, 263, 443, 211, 8.181818, 180
72.04409, 274, 445, 211, 8.181818, 0
72.06549, 269, 449, 193, -5.206612, 0
72.08196, 269, 450, 172, -20.82645, 0
72.10103, 271, 449, 160, -29.75207, 0
72.11961, 274, 450, 154, -34.21487, 0
72.14061, 300, 445, 145, -40.90909, 0
72.14061: Released object
72.16139, 326, 442, 144, -41.65289, 0
72.18073, 362, 436, 151, -36.44628, 0
72.19778, 421, 433, 153, -34.95868, 0
72.21738, 481, 430, 156, -32.72727, 0
72.23824, 538, 428, 159, -30.49587, 0
72.25885, 592, 428, 159, -30.49587, 0
72.28032, 639, 428, 159, -30.49587, 0
72.29965, 674, 429, 157, -31.98347, 0
72.31998, 697, 428, 156, -32.72727, 0
72.33672, 694, 429, 158, -31.23967, 0
72.35732, 695, 439, 156, -32.72727, 0
72.37833, 698, 431, 152, -35.70248, 0
72.3977, 696, 431, 146, -40.16529, 0
72.41843, 689, 440, 146, -40.16529, 0
72.4392, 689, 434, 139, -45.3719, 0
72.45566, 684, 438, 139, -45.3719, 0
72.47651, 693, 430, 137, -46.8595, 0
72.4978, 690, 434, 133, -49.83471, 0
72.51739, 692, 429, 131, -51.32232, 0
72.53741, 681, 430, 131, -51.32232, 0
72.55737, 664, 430, 129, -52.80992, 0
72.57767, 629, 436, 127, -54.29752, 0
72.5984, 616, 430, 124, -56.52893, 0
72.61743, 590, 430, 123, -57.27273, 0
72.63828, 566, 430, 122, -58.01653, 0
72.65852, 537, 431, 120, -59.50413, 0
72.67941, 500, 433, 113, -64.71075, 0
72.70047, 477, 430, 116, -62.47934, 0
72.71714, 445, 430, 114, -63.96694, 0
72.7359, 417, 429, 113, -64.71075, 0
72.75623, 391, 429, 111, -66.19835, 0
72.77792, 360, 430, 110, -66.94215, 0
72.79847, 327, 430, 108, -68.42975, 0
72.81792, 301, 429, 106, -69.91736, 0
72.83387, 274, 432, 98, -75.86777, 0
72.85445, 247, 430, 104, -71.40496, 0
72.8749, 221, 429, 103, -72.14876, 0
72.89721, 197, 427, 103, -72.14876, 0
72.91795, 171, 428, 104, -71.40496, 0
72.93758, 145, 428, 103, -72.14876, 0
72.95332, 122, 427, 102, -72.89256, 180
72.97257, 92, 462, 102, -72.89256, 180
72.99197, 83, 432, 94, -78.84297, 180
73.01267, 66, 443, 89, -82.56198, 180
73.03279, 61, 444, 90, -81.81818, 180
73.05551, 74, 448, 92, -80.33058, 180
73.07344, 111, 448, 105, -70.66116, 180
73.09269, 144, 445, 107, -69.17355, 180
73.11493, 175, 446, 115, -63.22314, 180
73.13964, 211, 445, 118, -60.99174, 180
73.1543, 241, 443, 119, -60.24793, 180
73.17287, 261, 442, 120, -59.50413, 180
73.18963, 277, 442, 118, -60.99174, 0
73.20923, 282, 443, 104, -71.40496, 0
73.22977, 279, 439, 95, -78.09917, 0
73.25043, 275, 435, 89, -82.56198, 0
73.27015, 254, 428, 95, -78.09917, 0
73.29047, 229, 424, 100, -74.38017, 0
73.30754, 204, 422, 105, -70.66116, 0
73.32905, 182, 418, 111, -66.19835, 0
73.34943, 158, 417, 112, -65.45454, 0
73.3688, 133, 416, 112, -65.45454, 0
73.38919, 111, 415, 112, -65.45454, 180
73.40978, 87, 423, 89, -82.56198, 180
73.42751, 70, 434, 80, -89.2562, 180
73.44616, 60, 440, 82, -87.76859, 180
73.46783, 55, 442, 86, -84.79339, 180
73.48762, 54, 444, 93, -79.58678, 180
73.50792, 56, 446, 104, -71.40496, 180
73.52952, 72, 450, 114, -63.96694, 180
73.54973, 89, 446, 118, -60.99174, 180
73.56532, 107, 444, 121, -58.76033, 180
73.58562, 134, 445, 127, -54.29752, 180
73.60609, 156, 454, 131, -51.32232, 180
73.62756, 186, 444, 133, -49.83471, 180
73.64742, 193, 443, 134, -49.09091, 180
73.6673, 201, 442, 135, -48.34711, 180
73.68401, 202, 440, 131, -51.32232, 180
73.70433, 211, 439, 137, -46.8595, 180
73.72476, 206, 441, 136, -47.60331, 180
73.7487, 191, 441, 135, -48.34711, 180
73.76959, 184, 440, 135, -48.34711, 180
73.7883, 171, 440, 132, -50.57851, 180
73.80589, 163, 442, 135, -48.34711, 180
73.82542, 152, 442, 136, -47.60331, 180
73.84669, 143, 441, 133, -49.83471, 180
73.86705, 141, 441, 141, -43.8843, 180
73.88728, 144, 441, 145, -40.90909, 180
73.90839, 137, 441, 146, -40.16529, 180
73.92428, 129, 440, 147, -39.42149, 180
73.94473, 119, 441, 147, -39.42149, 180
73.96346, 113, 440, 148, -38.67768, 180
73.98548, 103, 443, 143, -42.39669, 180
74.00395, 99, 441, 153, -34.95868, 180
74.02423, 96, 441, 156, -32.72727, 180
74.04114, 96, 441, 154, -34.21487, 180
74.06271, 84, 440, 158, -31.23967, 180
74.08185, 78, 442, 161, -29.00826, 180
74.10258, 74, 441, 162, -28.26446, 180
74.12299, 71, 442, 164, -26.77686, 180
74.14321, 71, 444, 159, -30.49587, 180
74.16129, 71, 441, 169, -23.05785, 180
74.17986, 71, 441, 172, -20.82645, 180
74.20114, 74, 446, 174, -19.33884, 180
74.22054, 85, 441, 175, -18.59504, 180
74.24071, 87, 440, 175, -18.59504, 180
74.26368, 95, 441, 168, -23.80165, 180
74.28185, 102, 441, 169, -23.05785, 180
74.29843, 111, 441, 177, -17.10744, 180
74.31875, 119, 441, 178, -16.36364, 180
74.33933, 125, 441, 175, -18.59504, 180
74.36034, 135, 440, 184, -11.90083, 180
74.38009, 150, 440, 186, -10.41322, 180
74.40159, 168, 440, 186, -10.41322, 180
74.4185, 185, 441, 185, -11.15702, 180
74.43743, 190, 441, 180, -14.87603, 180
74.4579, 208, 442, 188, -8.92562, 180
74.48054, 220, 441, 187, -9.669421, 180
74.50352, 233, 441, 197, -2.231405, 180
74.51991, 237, 451, 204, 2.975207, 180
74.53671, 258, 439, 209, 6.694215, 180
74.53671: Grabbed object
74.55717, 249, 439, 212, 8.92562, 0
74.57785, 244, 441, 205, 3.719008, 0
74.59785, 231, 440, 191, -6.694215, 0
74.61888, 218, 441, 177, -17.10744, 0
74.63879, 210, 439, 170, -22.31405, 0
74.65457, 182, 437, 167, -24.54545, 0
74.67509, 159, 433, 169, -23.05785, 0
74.6961, 129, 433, 166, -25.28926, 0
74.71592, 112, 427, 176, -17.85124, 180
74.73698, 122, 411, 208, 5.950413, 180
74.757, 139, 430, 174, -19.33884, 180
74.77334, 166, 436, 164, -26.77686, 180
74.79508, 175, 440, 161, -29.00826, 180
74.81443, 174, 445, 169, -23.05785, 180
74.83586, 165, 443, 176, -17.85124, 180
74.8579, 150, 444, 180, -14.87603, 180
74.87816, 132, 447, 190, -7.438016, 180
74.89543, 117, 444, 202, 1.487603, 180
74.9136, 100, 442, 210, 7.438016, 180
74.93389, 86, 443, 210, 7.438016, 180
74.95387, 72, 444, 210, 7.438016, 180
74.97413, 69, 445, 210, 7.438016, 180
74.99683, 61, 447, 210, 7.438016, 180
75.01205, 55, 448, 209, 6.694215, 180
75.03156, 48, 450, 209, 6.694215, 180
75.05272, 42, 451, 209, 6.694215, 180
75.07336, 35, 453, 209, 6.694215, 180
75.09329, 34, 453, 209, 6.694215, 180
75.11337, 32, 455, 209, 6.694215, 180
75.13406, 33, 454, 210, 7.438016, 180
75.15114, 40, 455, 210, 7.438016, 180
75.17086, 45, 455, 211, 8.181818, 180
75.19093, 53, 456, 208, 5.950413, 180
75.21467, 68, 457, 208, 5.950413, 180
75.23435, 75, 458, 208, 5.950413, 180
75.25643, 87, 457, 210, 7.438016, 180
75.27265, 96, 455, 213, 9.669421, 180
75.29147, 106, 455, 211, 8.181818, 180
75.31254, 104, 454, 213, 9.669421, 180
75.33347, 111, 455, 208, 5.950413, 180
75.35322, 111, 455, 208, 5.950413, 180
75.37325, 114, 455, 208, 5.950413, 180
75.39024, 110, 455, 207, 5.206612, 180
75.41107, 107, 455, 205, 3.719008, 180
75.43205, 102, 455, 205, 3.719008, 180
75.45156, 102, 454, 205, 3.719008, 180
75.47325, 99, 454, 205, 3.719008, 180
75.49274, 94, 454, 205, 3.719008, 180
75.51192, 89, 453, 205, 3.719008, 180
75.52866, 89, 453, 205, 3.719008, 180
75.54801, 86, 452, 205, 3.719008, 180
75.56921, 81, 453, 205, 3.719008, 180
75.58912, 78, 452, 205, 3.719008, 180
75.60998, 73, 452, 206, 4.46281, 180
75.63041, 71, 452, 205, 3.719008, 180
75.64742, 68, 453, 205, 3.719008, 180
75.66737, 68, 453, 205, 3.719008, 180
75.68816, 64, 454, 205, 3.719008, 180
75.70766, 61, 453, 205, 3.719008, 180
75.72956, 58, 453, 205, 3.719008, 180
75.74888, 58, 453, 205, 3.719008, 180
75.7702, 57, 454, 205, 3.719008, 180
75.78688, 54, 455, 205, 3.719008, 180
75.80626, 57, 455, 205, 3.719008, 180
75.82729, 53, 455, 206, 4.46281, 180
75.84748, 58, 455, 205, 3.719008, 180
75.86735, 57, 455, 205, 3.719008, 180
75.88925, 55, 455, 205, 3.719008, 180
75.90486, 57, 456, 205, 3.719008, 180
75.92507, 57, 456, 205, 3.719008, 180
75.94641, 52, 457, 205, 3.719008, 180
75.9659, 54, 457, 205, 3.719008, 180
75.98655, 51, 457, 205, 3.719008, 180
76.00666, 48, 458, 205, 3.719008, 180
76.02338, 47, 458, 206, 4.46281, 180
76.04431, 49, 458, 206, 4.46281, 180
76.06433, 51, 458, 207, 5.206612, 180
76.08592, 52, 458, 204, 2.975207, 180
76.10609, 51, 457, 205, 3.719008, 180
76.12622, 56, 458, 205, 3.719008, 180
76.14706, 55, 457, 206, 4.46281, 180
76.1657, 57, 458, 204, 2.975207, 180
76.18232, 64, 458, 204, 2.975207, 180
76.20264, 63, 458, 204, 2.975207, 180
76.22325, 64, 459, 204, 2.975207, 180
76.24444, 67, 459, 204, 2.975207, 180
76.26434, 66, 460, 204, 2.975207, 180
76.28067, 69, 459, 204, 2.975207, 180
76.30112, 70, 460, 204, 2.975207, 180
76.32244, 73, 461, 204, 2.975207, 180
76.34273, 75, 461, 204, 2.975207, 180
76.36324, 78, 462, 204, 2.975207, 180
76.38311, 82, 462, 204, 2.975207, 180
76.39943, 83, 462, 204, 2.975207, 180
76.41982, 86, 463, 203, 2.231405, 180
76.44067, 88, 463, 203, 2.231405, 180
76.4617, 88, 463, 203, 2.231405, 180
76.48126, 90, 461, 208, 5.950413, 180
76.50175, 92, 458, 210, 7.438016, 180
76.52308, 83, 456, 208, 5.950413, 180
76.54222, 76, 453, 207, 5.206612, 180
76.56017, 66, 452, 203, 2.231405, 180
76.5808, 62, 450, 203, 2.231405, 180
76.6003, 53, 448, 203, 2.231405, 180
76.62076, 55, 447, 203, 2.231405, 180
76.64082, 46, 446, 204, 2.975207, 180
76.65795, 39, 446, 203, 2.231405, 180
76.67918, 36, 445, 203, 2.231405, 180
76.6982, 33, 445, 203, 2.231405, 180
76.719, 30, 445, 204, 2.975207, 180
76.73999, 27, 445, 204, 2.975207, 180
76.76009, 26, 445, 204, 2.975207, 180
76.77676, 26, 445, 203, 2.231405, 180
76.79705, 25, 445, 203, 2.231405, 180
76.81704, 28, 445, 203, 2.231405, 180
76.83775, 26, 444, 204, 2.975207, 180
76.85783, 25, 443, 203, 2.231405, 180
76.87958, 25, 441, 203, 2.231405, 180
76.89886, 24, 440, 200, 0, 180
76.91591, 31, 439, 193, -5.206612, 180
76.93591, 29, 444, 176, -17.85124, 180
76.95818, 26, 467, 203, 2.231405, 180
76.97792, 22, 451, 203, 2.231405, 180
76.99709, 39, 448, 204, 2.975207, 180
77.01768, 33, 450, 204, 2.975207, 180
77.03405, 38, 451, 203, 2.231405, 180
77.05502, 38, 452, 203, 2.231405, 180
77.075, 42, 454, 203, 2.231405, 180
77.0962, 47, 455, 203, 2.231405, 180
77.11645, 58, 457, 203, 2.231405, 180
77.13715, 74, 459, 204, 2.975207, 180
77.15783, 89, 459, 206, 4.46281, 180
77.17525, 98, 460, 208, 5.950413, 180
77.19527, 108, 460, 210, 7.438016, 180
77.21471, 116, 458, 210, 7.438016, 180
77.23479, 117, 459, 213, 9.669421, 180
77.25896, 126, 453, 215, 11.15702, 180
77.28085, 133, 453, 212, 8.92562, 180
77.29693, 125, 454, 209, 6.694215, 180
77.31636, 117, 455, 206, 4.46281, 180
77.33614, 112, 456, 202, 1.487603, 180
77.35726, 106, 458, 188, -8.92562, 180
77.37775, 105, 459, 195, -3.719008, 180
77.39676, 97, 459, 194, -4.46281, 180
77.4128, 95, 458, 194, -4.46281, 180
77.43232, 86, 458, 193, -5.206612, 180
77.45304, 85, 457, 192, -5.950413, 180
77.47334, 74, 457, 191, -6.694215, 180
77.49457, 70, 457, 191, -6.694215, 180
77.51416, 67, 456, 191, -6.694215, 180
77.53468, 68, 456, 191, -6.694215, 180
77.55096, 65, 457, 191, -6.694215, 180
77.57175, 59, 457, 191, -6.694215, 180
77.59245, 54, 457, 191, -6.694215, 180
77.61258, 51, 457, 191, -6.694215, 180
77.632, 48, 457, 191, -6.694215, 180
77.65268, 46, 456, 191, -6.694215, 180
77.66903, 46, 457, 191, -6.694215, 180
77.68937, 45, 456, 191, -6.694215, 180
77.71124, 41, 455, 191, -6.694215, 180
77.73168, 39, 454, 191, -6.694215, 180
77.75217, 34, 452, 191, -6.694215, 180
77.77201, 30, 449, 191, -6.694215, 180
77.79012, 27, 448, 192, -5.950413, 180
77.80984, 26, 446, 192, -5.950413, 180
77.83218, 25, 445, 192, -5.950413, 180
77.85002, 29, 443, 192, -5.950413, 180
77.87042, 32, 443, 192, -5.950413, 180
77.89104, 40, 443, 192, -5.950413, 180
77.91214, 49, 441, 192, -5.950413, 180
77.92876, 64, 442, 192, -5.950413, 180
77.94836, 71, 441, 193, -5.206612, 180
77.9693, 81, 441, 190, -7.438016, 180
77.98943, 91, 449, 193, -5.206612, 180
78.01173, 95, 442, 190, -7.438016, 180
78.03107, 98, 443, 191, -6.694215, 180
78.0488, 95, 444, 191, -6.694215, 180
78.06684, 86, 444, 193, -5.206612, 180
78.08836, 81, 445, 193, -5.206612, 180
78.10792, 73, 446, 194, -4.46281, 180
78.13047, 63, 447, 194, -4.46281, 180
78.15055, 54, 449, 193, -5.206612, 180
78.16553, 47, 450, 193, -5.206612, 180
78.185, 41, 452, 193, -5.206612, 180
78.20564, 42, 454, 193, -5.206612, 180
78.22812, 44, 456, 193, -5.206612, 180
78.24826, 46, 458, 192, -5.950413, 180
78.26807, 53, 460, 193, -5.206612, 180
78.28819, 63, 461, 193, -5.206612, 180
78.30505, 75, 462, 192, -5.950413, 180
78.32578, 84, 463, 193, -5.206612, 180
78.34761, 94, 462, 195, -3.719008, 180
