UA-Ange: 0, ForearmStretched: 239, Forearm: 110, LeftArm? Yes
Time, EMG-Signal, Force-Value, Elbow-Angle, Transformed-Angle, MotorTarget
194.5708, 98, 413, 116, -85.81396, 0
194.5708, 110, 414, 116, -85.81396, 0
194.5907, 118, 413, 117, -85.11628, 0
194.6117, 126, 413, 116, -85.81396, 0
194.6291, 136, 413, 116, -85.81396, 0
194.6481, 148, 413, 116, -85.81396, 0
194.6585, 155, 414, 116, -85.81396, 0
194.6764, 157, 414, 116, -85.81396, 0
194.694, 158, 415, 116, -85.81396, 0
194.7102, 164, 415, 116, -85.81396, 0
194.7263, 175, 415, 116, -85.81396, 0
194.7533, 185, 416, 116, -85.81396, 0
194.7683, 200, 415, 116, -85.81396, 0
194.7847, 203, 415, 116, -85.81396, 0
194.8154, 204, 416, 116, -85.81396, 0
194.8304, 203, 415, 116, -85.81396, 0
194.8455, 206, 416, 116, -85.81396, 0
194.8608, 212, 415, 116, -85.81396, 0
194.8876, 219, 415, 116, -85.81396, 0
194.9051, 214, 415, 117, -85.11628, 0
194.9266, 217, 414, 116, -85.81396, 0
194.942, 226, 414, 116, -85.81396, 0
194.9585, 235, 414, 116, -85.81396, 0
194.9736, 243, 414, 116, -85.81396, 0
194.9913, 248, 413, 116, -85.81396, 0
195.0069, 250, 413, 116, -85.81396, 0
195.0241, 259, 413, 116, -85.81396, 0
195.0397, 258, 413, 116, -85.81396, 0
195.0689, 254, 413, 116, -85.81396, 0
195.109, 252, 412, 116, -85.81396, 0
195.1221, 261, 412, 116, -85.81396, 0
195.1393, 272, 411, 116, -85.81396, 0
195.153, 280, 410, 116, -85.81396, 0
195.1726, 292, 410, 116, -85.81396, 0
195.1878, 309, 409, 117, -85.11628, 0
195.2052, 313, 407, 117, -85.11628, 0
195.2221, 316, 406, 117, -85.11628, 0
195.2369, 320, 405, 117, -85.11628, 0
195.2651, 324, 404, 120, -83.02325, 0
195.283, 334, 401, 121, -82.32558, 0
195.2997, 338, 404, 123, -80.93023, 0
195.3147, 352, 404, 125, -79.53488, 0
195.3289, 357, 406, 119, -83.72093, 0
195.3504, 376, 407, 123, -80.93023, 0
195.3648, 397, 408, 121, -82.32558, 0
195.376, 429, 408, 119, -83.72093, 0
195.4052, 459, 408, 120, -83.02325, 0
195.4194, 489, 407, 120, -83.02325, 0
195.4432, 513, 408, 120, -83.02325, 0
195.4577, 533, 408, 120, -83.02325, 0
195.4713, 541, 407, 120, -83.02325, 0
195.4899, 537, 407, 120, -83.02325, 0
195.5054, 540, 407, 120, -83.02325, 0
195.5229, 531, 407, 120, -83.02325, 0
195.5381, 522, 407, 120, -83.02325, 0
195.5555, 509, 406, 120, -83.02325, 0
195.5706, 503, 405, 120, -83.02325, 0
195.5868, 488, 405, 120, -83.02325, 0
195.6055, 468, 404, 120, -83.02325, 0
195.62, 450, 403, 122, -81.62791, 0
195.6327, 429, 403, 123, -80.93023, 0
195.6683, 418, 402, 123, -80.93023, 0
195.6781, 405, 401, 125, -79.53488, 0
195.6891, 388, 400, 126, -78.83721, 0
195.7058, 381, 399, 128, -77.44186, 180
195.7193, 345, 405, 101, -96.27907, 180
195.7443, 307, 418, 81, -110.2326, 180
195.7557, 285, 432, 81, -110.2326, 180
195.7671, 278, 437, 86, -106.7442, 180
195.788, 277, 443, 93, -101.8605, 180
195.8041, 267, 449, 99, -97.67442, 180
195.8167, 264, 443, 112, -88.60465, 180
195.8367, 280, 442, 117, -85.11628, 180
195.8506, 296, 442, 128, -77.44186, 180
195.8672, 315, 440, 132, -74.65116, 180
195.8855, 333, 441, 132, -74.65116, 180
195.9002, 347, 439, 137, -71.16279, 180
195.9171, 366, 440, 140, -69.06977, 180
195.9396, 359, 439, 142, -67.67442, 180
195.9589, 347, 438, 148, -63.48837, 180
195.9768, 334, 442, 152, -60.69767, 180
195.9979, 317, 439, 149, -62.7907, 180
196.0175, 290, 452, 160, -55.11628, 180
196.0383, 281, 439, 162, -53.72093, 180
196.0593, 262, 445, 166, -50.93023, 180
196.0758, 242, 440, 171, -47.44186, 180
196.0933, 212, 440, 176, -43.95349, 180
196.1172, 193, 442, 186, -36.97675, 180
196.1345, 200, 442, 191, -33.48837, 180
196.1561, 216, 444, 189, -34.88372, 180
196.1752, 231, 442, 200, -27.2093, 180
196.191, 250, 442, 202, -25.81395, 180
196.2118, 256, 443, 211, -19.53488, 180
196.2321, 247, 442, 216, -16.04651, 180
196.2535, 235, 439, 219, -13.95349, 180
196.2735, 216, 437, 220, -13.25581, 180
196.303, 197, 431, 214, -17.44186, 180
196.3153, 188, 428, 208, -21.62791, 180
196.3303, 173, 420, 197, -29.30233, 180
196.3511, 152, 439, 168, -49.53489, 180
196.3733, 128, 461, 168, -49.53489, 0
196.3918, 164, 446, 232, -4.883721, 0
196.4116, 160, 444, 216, -16.04651, 0
196.4288, 157, 446, 196, -30, 0
196.449, 144, 444, 183, -39.06977, 0
196.4752, 132, 442, 173, -46.04651, 0
196.4924, 123, 440, 177, -43.25581, 0
196.5113, 119, 432, 181, -40.46511, 0
196.5283, 116, 428, 184, -38.37209, 0
196.5469, 119, 424, 191, -33.48837, 0
196.568, 112, 423, 196, -30, 0
196.5892, 108, 422, 199, -27.90698, 0
196.6096, 104, 422, 201, -26.51163, 0
196.6301, 102, 421, 203, -25.11628, 0
196.6457, 100, 422, 203, -25.11628, 0
196.6661, 106, 423, 201, -26.51163, 0
196.6878, 124, 423, 199, -27.90698, 0
196.7073, 129, 424, 196, -30, 0
196.7277, 130, 422, 194, -31.39535, 0
196.7475, 115, 429, 189, -34.88372, 0
196.7651, 110, 423, 194, -31.39535, 0
196.786, 125, 423, 194, -31.39535, 0
196.8055, 119, 423, 192, -32.7907, 0
196.8271, 107, 423, 193, -32.09302, 0
196.8459, 99, 422, 196, -30, 0
196.867, 100, 421, 198, -28.60465, 0
196.8857, 91, 421, 200, -27.2093, 0
196.9032, 89, 420, 200, -27.2093, 0
196.9242, 123, 420, 200, -27.2093, 0
196.9451, 134, 420, 200, -27.2093, 0
196.9651, 140, 420, 202, -25.81395, 0
196.9867, 146, 421, 201, -26.51163, 0
197.0028, 149, 422, 201, -26.51163, 0
197.0235, 145, 423, 200, -27.2093, 0
197.0445, 149, 422, 201, -26.51163, 0
197.0638, 154, 422, 201, -26.51163, 0
197.0856, 145, 422, 201, -26.51163, 0
197.1061, 128, 422, 201, -26.51163, 0
197.1241, 119, 422, 201, -26.51163, 0
197.1414, 118, 421, 201, -26.51163, 0
197.1618, 117, 422, 201, -26.51163, 0
197.1822, 111, 423, 201, -26.51163, 0
197.2033, 97, 423, 201, -26.51163, 0
197.2232, 91, 423, 200, -27.2093, 0
197.2398, 90, 423, 199, -27.90698, 0
197.2605, 90, 424, 197, -29.30233, 0
197.2805, 91, 424, 194, -31.39535, 0
197.3009, 98, 423, 187, -36.27907, 0
197.3258, 112, 422, 193, -32.09302, 0
197.3413, 107, 422, 193, -32.09302, 0
197.3572, 117, 422, 194, -31.39535, 0
197.3785, 135, 422, 194, -31.39535, 0
197.3998, 145, 422, 195, -30.69767, 0
197.4196, 175, 421, 194, -31.39535, 0
197.4396, 197, 422, 196, -30, 0
197.4677, 224, 422, 197, -29.30233, 0
197.4812, 241, 421, 197, -29.30233, 0
197.5, 259, 423, 197, -29.30233, 0
197.5181, 269, 424, 196, -30, 0
197.5427, 269, 425, 193, -32.09302, 0
197.5602, 273, 425, 190, -34.18605, 0
197.5796, 272, 425, 188, -35.58139, 0
197.5954, 269, 425, 186, -36.97675, 0
197.6148, 252, 424, 185, -37.67442, 0
197.6358, 236, 423, 186, -36.97675, 0
197.6571, 224, 421, 188, -35.58139, 0
197.6772, 215, 419, 191, -33.48837, 0
197.6974, 197, 418, 193, -32.09302, 0
197.7137, 186, 417, 193, -32.09302, 0
197.7356, 167, 417, 192, -32.7907, 0
197.7571, 146, 416, 193, -32.09302, 0
197.7753, 132, 415, 192, -32.7907, 0
197.7957, 114, 416, 193, -32.09302, 0
197.812, 101, 416, 193, -32.09302, 0
197.8333, 91, 416, 192, -32.7907, 0
197.8522, 85, 417, 192, -32.7907, 0
197.8731, 84, 418, 193, -32.09302, 0
197.8949, 86, 418, 192, -32.7907, 0
197.9157, 89, 418, 192, -32.7907, 0
197.9319, 91, 418, 192, -32.7907, 0
197.9547, 94, 418, 192, -32.7907, 0
197.9751, 100, 418, 192, -32.7907, 0
197.9933, 107, 418, 192, -32.7907, 0
198.0147, 113, 417, 192, -32.7907, 0
198.0362, 121, 416, 192, -32.7907, 0
198.0549, 132, 416, 192, -32.7907, 0
198.0749, 142, 416, 192, -32.7907, 0
198.0918, 145, 417, 193, -32.09302, 0
198.1112, 148, 416, 192, -32.7907, 0
198.1311, 149, 418, 192, -32.7907, 0
198.1519, 149, 418, 192, -32.7907, 0
198.1693, 149, 419, 192, -32.7907, 0
198.1907, 149, 419, 192, -32.7907, 0
198.2096, 151, 420, 192, -32.7907, 0
198.2304, 153, 420, 192, -32.7907, 0
198.2505, 149, 420, 192, -32.7907, 0
198.2717, 146, 420, 191, -33.48837, 0
198.2897, 141, 421, 192, -32.7907, 0
198.3084, 136, 420, 191, -33.48837, 0
198.3288, 124, 421, 192, -32.7907, 0
198.3491, 117, 421, 192, -32.7907, 0
198.3697, 108, 421, 192, -32.7907, 0
198.3935, 100, 421, 192, -32.7907, 0
198.412, 94, 421, 192, -32.7907, 0
198.4288, 88, 421, 192, -32.7907, 0
198.4485, 83, 421, 192, -32.7907, 0
198.4709, 79, 422, 191, -33.48837, 0
198.4899, 76, 421, 191, -33.48837, 0
198.5096, 71, 421, 191, -33.48837, 0
198.5262, 69, 422, 190, -34.18605, 0
198.5461, 67, 422, 190, -34.18605, 0
198.5653, 65, 422, 189, -34.88372, 0
198.5857, 62, 422, 187, -36.27907, 0
198.6082, 60, 422, 187, -36.27907, 0
198.6275, 57, 422, 186, -36.97675, 0
198.644, 57, 422, 186, -36.97675, 0
198.6648, 54, 422, 187, -36.27907, 0
198.689, 56, 422, 186, -36.97675, 0
198.7173, 60, 422, 186, -36.97675, 0
198.7266, 63, 422, 185, -37.67442, 0
198.7455, 63, 423, 185, -37.67442, 0
198.7633, 63, 423, 186, -36.97675, 0
198.7834, 68, 422, 187, -36.27907, 0
198.8041, 68, 423, 188, -35.58139, 0
198.8252, 66, 423, 188, -35.58139, 0
198.8448, 70, 423, 188, -35.58139, 0
198.8648, 74, 423, 188, -35.58139, 0
198.8811, 80, 423, 187, -36.27907, 0
198.9027, 97, 424, 187, -36.27907, 0
198.9226, 110, 424, 188, -35.58139, 0
198.9428, 104, 423, 187, -36.27907, 0
198.9627, 109, 424, 187, -36.27907, 0
198.9796, 110, 424, 186, -36.97675, 0
199.0005, 107, 424, 185, -37.67442, 0
199.0215, 102, 425, 186, -36.97675, 0
199.0433, 102, 424, 186, -36.97675, 0
199.0624, 91, 425, 186, -36.97675, 0
199.0834, 83, 424, 185, -37.67442, 0
199.102, 84, 424, 185, -37.67442, 0
199.1199, 79, 423, 186, -36.97675, 0
199.1401, 75, 423, 186, -36.97675, 0
199.1603, 73, 422, 187, -36.27907, 0
199.1817, 70, 422, 187, -36.27907, 0
199.2046, 75, 421, 187, -36.27907, 0
199.2234, 72, 421, 187, -36.27907, 0
199.2415, 67, 421, 187, -36.27907, 0
199.2609, 68, 422, 187, -36.27907, 0
199.2806, 79, 421, 187, -36.27907, 0
199.2994, 77, 421, 187, -36.27907, 0
199.3211, 74, 421, 187, -36.27907, 0
199.3385, 77, 422, 187, -36.27907, 0
199.3583, 95, 421, 187, -36.27907, 0
199.3785, 98, 423, 187, -36.27907, 0
199.4007, 123, 421, 187, -36.27907, 0
199.4209, 167, 420, 187, -36.27907, 0
199.4403, 159, 420, 187, -36.27907, 0
199.4611, 145, 420, 187, -36.27907, 0
199.4766, 136, 422, 187, -36.27907, 0
199.4959, 130, 424, 187, -36.27907, 0
199.5158, 120, 424, 187, -36.27907, 0
199.5369, 116, 424, 188, -35.58139, 0
199.5609, 111, 424, 187, -36.27907, 0
199.5753, 105, 424, 187, -36.27907, 0
199.5937, 108, 423, 187, -36.27907, 0
199.6144, 119, 421, 187, -36.27907, 0
199.6366, 128, 417, 187, -36.27907, 0
199.6553, 144, 414, 188, -35.58139, 0
199.6776, 165, 411, 188, -35.58139, 0
199.6939, 183, 409, 190, -34.18605, 0
199.7132, 206, 406, 190, -34.18605, 0
199.7339, 233, 404, 191, -33.48837, 0
199.7554, 253, 402, 195, -30.69767, 0
199.7763, 265, 402, 198, -28.60465, 0
199.7966, 272, 409, 198, -28.60465, 0
199.8134, 274, 402, 200, -27.2093, 0
199.8338, 254, 403, 190, -34.18605, 0
199.8553, 229, 410, 200, -27.2093, 0
199.8747, 204, 402, 199, -27.90698, 0
199.8958, 171, 403, 200, -27.2093, 0
199.9142, 142, 404, 199, -27.90698, 0
199.9311, 122, 405, 198, -28.60465, 0
199.9536, 108, 406, 194, -31.39535, 0
199.973, 98, 406, 195, -30.69767, 0
199.9933, 90, 407, 195, -30.69767, 0
200.0145, 85, 406, 194, -31.39535, 0
200.031, 82, 407, 194, -31.39535, 0
200.0546, 81, 406, 194, -31.39535, 0
200.0706, 77, 405, 194, -31.39535, 0
200.0921, 71, 405, 195, -30.69767, 0
200.1133, 67, 404, 195, -30.69767, 0
200.1318, 64, 404, 195, -30.69767, 0
200.1482, 60, 404, 194, -31.39535, 0
200.17, 58, 403, 194, -31.39535, 0
200.1912, 56, 403, 194, -31.39535, 0
200.2104, 64, 403, 195, -30.69767, 0
200.232, 75, 404, 195, -30.69767, 0
200.2503, 83, 404, 195, -30.69767, 0
200.2686, 97, 405, 195, -30.69767, 0
200.2871, 112, 406, 195, -30.69767, 0
200.3081, 123, 408, 194, -31.39535, 0
200.3296, 135, 412, 195, -30.69767, 0
200.3497, 183, 415, 194, -31.39535, 0
200.3688, 163, 419, 194, -31.39535, 0
200.3859, 165, 423, 192, -32.7907, 0
200.4065, 168, 428, 185, -37.67442, 0
200.4263, 144, 437, 176, -43.95349, 0
200.4456, 120, 443, 166, -50.93023, 0
200.4745, 98, 451, 155, -58.60465, 0
200.4878, 82, 448, 143, -66.97675, 0
200.503, 79, 450, 133, -73.95349, 0
200.5244, 89, 446, 131, -75.34884, 0
200.5458, 104, 440, 132, -74.65116, 0
200.565, 124, 428, 143, -66.97675, 0
200.5859, 135, 417, 155, -58.60465, 0
200.6062, 131, 408, 167, -50.23256, 0
200.6224, 114, 398, 170, -48.13953, 180
200.6464, 91, 401, 136, -71.86047, 180
200.6633, 72, 411, 116, -85.81396, 180
200.6809, 73, 413, 119, -83.72093, 180
200.7058, 70, 429, 132, -74.65116, 180
200.7248, 69, 432, 135, -72.55814, 180
200.7469, 68, 443, 145, -65.5814, 180
200.7613, 66, 445, 152, -60.69767, 180
200.7822, 67, 451, 159, -55.81395, 180
200.8025, 68, 451, 179, -41.86047, 180
200.823, 82, 451, 193, -32.09302, 180
200.844, 111, 450, 210, -20.23256, 180
200.8598, 149, 450, 219, -13.95349, 180
200.8808, 220, 449, 230, -6.27907, 180
200.9011, 264, 447, 239, 0, 180
200.9239, 266, 447, 239, 0, 180
200.9415, 280, 447, 238, -0.6976744, 180
200.968, 284, 447, 238, -0.6976744, 180
200.9839, 243, 446, 238, -0.6976744, 180
201.0005, 205, 447, 238, -0.6976744, 180
201.0192, 186, 446, 238, -0.6976744, 180
201.0403, 178, 445, 238, -0.6976744, 180
201.0611, 180, 445, 238, -0.6976744, 180
201.0772, 193, 445, 238, -0.6976744, 180
201.0976, 206, 445, 238, -0.6976744, 180
201.1176, 222, 445, 238, -0.6976744, 180
201.1388, 240, 445, 238, -0.6976744, 180
201.1586, 247, 444, 238, -0.6976744, 180
201.18, 257, 445, 238, -0.6976744, 180
201.1976, 280, 445, 238, -0.6976744, 180
201.2168, 375, 445, 238, -0.6976744, 180
201.2361, 466, 444, 239, 0, 180
201.2567, 519, 445, 239, 0, 180
201.2777, 546, 444, 239, 0, 180
201.2981, 556, 442, 239, 0, 180
201.3152, 533, 442, 239, 0, 180
201.341, 473, 439, 239, 0, 180
201.3578, 413, 436, 238, -0.6976744, 180
201.3783, 379, 424, 238, -0.6976744, 180
201.399, 342, 423, 233, -4.186047, 180
201.4184, 320, 416, 203, -25.11628, 180
201.4364, 276, 440, 172, -46.74419, 180
201.4544, 232, 458, 172, -46.74419, 0
201.475, 250, 443, 238, -0.6976744, 0
201.4957, 250, 445, 210, -20.23256, 0
201.5163, 268, 443, 198, -28.60465, 0
201.5379, 306, 441, 192, -32.7907, 0
201.5539, 363, 437, 190, -34.18605, 0
201.575, 430, 433, 191, -33.48837, 0
201.5941, 484, 429, 198, -28.60465, 0
201.6143, 531, 427, 202, -25.81395, 0
201.6342, 571, 424, 208, -21.62791, 0
201.6558, 610, 422, 215, -16.74419, 0
201.6729, 599, 427, 213, -18.13953, 0
201.6906, 574, 423, 216, -16.04651, 0
201.7112, 551, 422, 219, -13.95349, 0
201.7316, 530, 422, 220, -13.25581, 0
201.7525, 518, 422, 220, -13.25581, 0
201.7726, 498, 422, 220, -13.25581, 0
201.7893, 467, 422, 220, -13.25581, 0
201.81, 436, 422, 219, -13.95349, 0
201.8305, 414, 423, 219, -13.95349, 0
201.8506, 395, 423, 220, -13.25581, 0
201.8715, 384, 423, 219, -13.95349, 0
201.8913, 380, 422, 219, -13.95349, 0
201.9079, 381, 422, 219, -13.95349, 0
201.9276, 381, 422, 220, -13.25581, 0
201.9479, 378, 423, 219, -13.95349, 0
201.9688, 377, 423, 220, -13.25581, 0
201.9903, 378, 423, 220, -13.25581, 0
202.0187, 380, 422, 220, -13.25581, 0
202.0301, 378, 422, 219, -13.95349, 0
202.0471, 373, 422, 219, -13.95349, 0
202.0679, 370, 423, 219, -13.95349, 0
202.0884, 368, 423, 219, -13.95349, 0
202.1082, 361, 423, 219, -13.95349, 0
202.1276, 354, 423, 219, -13.95349, 0
202.1446, 342, 423, 219, -13.95349, 0
202.1659, 327, 423, 219, -13.95349, 0
202.1864, 310, 423, 219, -13.95349, 0
202.2067, 301, 423, 219, -13.95349, 0
202.2272, 287, 423, 219, -13.95349, 0
202.249, 273, 424, 219, -13.95349, 0
202.2651, 265, 423, 219, -13.95349, 0
202.2839, 260, 423, 219, -13.95349, 0
202.3051, 250, 423, 219, -13.95349, 0
202.3255, 239, 424, 219, -13.95349, 0
202.3471, 228, 424, 219, -13.95349, 0
202.3672, 221, 424, 219, -13.95349, 0
202.3836, 212, 424, 218, -14.65116, 0
202.4048, 201, 425, 215, -16.74419, 0
202.4254, 188, 425, 213, -18.13953, 0
202.4448, 163, 424, 208, -21.62791, 0
202.4648, 147, 425, 208, -21.62791, 0
202.487, 160, 427, 205, -23.72093, 0
202.5047, 155, 428, 202, -25.81395, 0
202.5258, 159, 430, 199, -27.90698, 0
202.5448, 162, 431, 197, -29.30233, 0
202.566, 165, 433, 192, -32.7907, 0
202.5859, 162, 435, 187, -36.27907, 0
202.6036, 162, 438, 178, -42.55814, 0
202.6256, 175, 441, 172, -46.74419, 0
202.6423, 180, 447, 166, -50.93023, 0
202.6654, 209, 445, 153, -60, 0
202.6867, 228, 453, 153, -60, 0
202.7032, 264, 445, 145, -65.5814, 0
202.7205, 282, 449, 143, -66.97675, 0
202.741, 302, 446, 137, -71.16279, 0
202.7608, 302, 444, 132, -74.65116, 0
202.7814, 294, 444, 131, -75.34884, 0
202.8016, 265, 445, 126, -78.83721, 0
202.8238, 220, 443, 123, -80.93023, 0
202.8407, 197, 447, 123, -80.93023, 0
202.8604, 207, 442, 118, -84.4186, 0
202.881, 210, 445, 118, -84.4186, 0
202.9012, 223, 439, 115, -86.51163, 0
202.9218, 246, 437, 114, -87.2093, 0
202.9416, 265, 436, 113, -87.90697, 0
202.9591, 289, 437, 114, -87.2093, 0
202.9784, 305, 438, 116, -85.81396, 0
202.9983, 335, 438, 115, -86.51163, 0
203.0196, 372, 428, 117, -85.11628, 0
203.0419, 415, 427, 120, -83.02325, 0
203.0615, 486, 426, 122, -81.62791, 0
203.0792, 560, 426, 121, -82.32558, 0
203.0977, 611, 427, 121, -82.32558, 0
203.1192, 645, 427, 121, -82.32558, 0
203.1402, 666, 426, 121, -82.32558, 0
203.159, 695, 425, 122, -81.62791, 0
203.1784, 719, 425, 122, -81.62791, 0
203.1957, 722, 426, 123, -80.93023, 0
203.216, 723, 425, 123, -80.93023, 0
203.2358, 722, 426, 121, -82.32558, 0
203.2567, 723, 425, 123, -80.93023, 0
203.2763, 724, 424, 123, -80.93023, 0
203.2973, 724, 424, 123, -80.93023, 0
203.3138, 726, 423, 124, -80.23256, 0
203.3468, 726, 423, 124, -80.23256, 0
203.357, 726, 423, 124, -80.23256, 0
203.3751, 726, 422, 124, -80.23256, 0
203.3948, 713, 422, 124, -80.23256, 0
203.4123, 697, 422, 124, -80.23256, 0
203.4315, 674, 422, 124, -80.23256, 0
203.456, 651, 423, 124, -80.23256, 0
203.4728, 630, 423, 124, -80.23256, 0
203.4933, 611, 423, 124, -80.23256, 0
203.5135, 589, 423, 124, -80.23256, 0
203.5304, 569, 423, 124, -80.23256, 0
203.5516, 547, 424, 124, -80.23256, 0
203.5723, 531, 424, 124, -80.23256, 0
203.5905, 516, 423, 124, -80.23256, 0
203.611, 501, 424, 124, -80.23256, 0
203.6313, 494, 424, 124, -80.23256, 0
203.6479, 484, 424, 124, -80.23256, 0
203.6696, 471, 424, 124, -80.23256, 0
203.6894, 463, 423, 124, -80.23256, 0
203.7103, 462, 424, 124, -80.23256, 0
203.7334, 482, 424, 124, -80.23256, 0
203.7542, 510, 423, 124, -80.23256, 0
203.7717, 544, 423, 124, -80.23256, 0
203.7914, 562, 423, 124, -80.23256, 0
203.8102, 569, 423, 124, -80.23256, 0
203.8314, 568, 423, 124, -80.23256, 0
203.8509, 565, 423, 124, -80.23256, 0
203.8711, 572, 423, 124, -80.23256, 0
203.8887, 573, 423, 124, -80.23256, 0
203.9102, 572, 423, 124, -80.23256, 0
203.9282, 573, 423, 124, -80.23256, 0
203.9476, 567, 423, 124, -80.23256, 0
203.9696, 547, 423, 124, -80.23256, 0
203.99, 512, 423, 124, -80.23256, 0
204.0063, 454, 423, 124, -80.23256, 0
204.0257, 384, 423, 124, -80.23256, 0
204.0463, 318, 423, 124, -80.23256, 0
204.0683, 274, 423, 124, -80.23256, 0
204.0884, 246, 423, 124, -80.23256, 0
204.108, 223, 423, 124, -80.23256, 0
204.1269, 206, 423, 123, -80.93023, 0
204.1482, 192, 423, 124, -80.23256, 0
204.1683, 182, 422, 124, -80.23256, 0
204.1866, 180, 422, 124, -80.23256, 0
204.2074, 179, 423, 124, -80.23256, 0
204.2238, 181, 423, 123, -80.93023, 0
204.2435, 185, 423, 123, -80.93023, 0
204.2634, 174, 423, 124, -80.23256, 0
204.2859, 178, 423, 123, -80.93023, 0
204.305, 171, 424, 123, -80.93023, 0
204.3239, 171, 424, 124, -80.23256, 0
204.3402, 169, 424, 123, -80.93023, 0
204.3613, 164, 424, 123, -80.93023, 0
204.3818, 164, 424, 124, -80.23256, 0
204.4037, 164, 423, 123, -80.93023, 0
204.4225, 160, 423, 123, -80.93023, 0
204.4423, 158, 422, 123, -80.93023, 0
204.459, 155, 423, 123, -80.93023, 0
204.4793, 148, 423, 123, -80.93023, 0
204.4999, 149, 423, 123, -80.93023, 0
204.5216, 151, 424, 123, -80.93023, 0
204.5405, 150, 424, 123, -80.93023, 0
204.5611, 150, 424, 123, -80.93023, 0
204.5783, 150, 424, 123, -80.93023, 0
204.5979, 151, 424, 123, -80.93023, 0
204.6189, 154, 423, 123, -80.93023, 0
204.64, 165, 423, 124, -80.23256, 0
204.66, 176, 423, 123, -80.93023, 0
204.6798, 187, 422, 123, -80.93023, 0
204.7069, 189, 422, 123, -80.93023, 0
204.7191, 190, 421, 123, -80.93023, 0
204.7383, 184, 422, 123, -80.93023, 0
204.757, 182, 421, 123, -80.93023, 0
204.7776, 182, 420, 123, -80.93023, 0
204.7958, 176, 421, 123, -80.93023, 0
204.8141, 164, 421, 123, -80.93023, 0
204.8362, 162, 422, 123, -80.93023, 0
204.8553, 155, 421, 123, -80.93023, 0
204.8759, 151, 422, 123, -80.93023, 0
204.8965, 141, 423, 123, -80.93023, 0
204.9141, 145, 423, 123, -80.93023, 0
204.9347, 157, 424, 123, -80.93023, 0
204.9543, 171, 424, 123, -80.93023, 0
204.9752, 182, 425, 124, -80.23256, 0
204.9946, 200, 419, 127, -78.13953, 0
205.0166, 211, 426, 121, -82.32558, 0
205.0313, 227, 427, 117, -85.11628, 0
205.0544, 242, 426, 116, -85.81396, 0
205.073, 253, 426, 116, -85.81396, 0
205.0939, 259, 425, 117, -85.11628, 0
205.1139, 270, 424, 119, -83.72093, 0
205.1356, 271, 424, 120, -83.02325, 0
205.1514, 278, 424, 120, -83.02325, 0
205.1709, 286, 423, 121, -82.32558, 0
205.1922, 284, 422, 121, -82.32558, 0
205.212, 276, 421, 121, -82.32558, 0
205.2341, 259, 421, 121, -82.32558, 0
205.255, 240, 420, 121, -82.32558, 0
205.2714, 228, 420, 121, -82.32558, 0
205.29, 211, 420, 121, -82.32558, 0
205.31, 194, 420, 121, -82.32558, 0
205.3307, 182, 419, 121, -82.32558, 0
205.3517, 174, 420, 121, -82.32558, 0
205.3719, 164, 419, 121, -82.32558, 0
205.3878, 157, 420, 121, -82.32558, 0
205.4082, 156, 419, 121, -82.32558, 0
205.4287, 157, 420, 121, -82.32558, 0
205.4512, 162, 420, 121, -82.32558, 0
205.4707, 163, 421, 121, -82.32558, 0
205.4906, 171, 421, 121, -82.32558, 0
205.5074, 171, 421, 121, -82.32558, 0
205.5269, 194, 422, 121, -82.32558, 0
205.5483, 245, 421, 122, -81.62791, 0
205.5684, 278, 421, 122, -81.62791, 0
205.5888, 296, 421, 122, -81.62791, 0
205.605, 306, 421, 121, -82.32558, 0
205.6259, 304, 421, 122, -81.62791, 0
205.6461, 289, 420, 122, -81.62791, 0
205.6691, 280, 420, 122, -81.62791, 0
205.6882, 260, 420, 122, -81.62791, 0
205.7077, 246, 419, 123, -80.93023, 0
205.7247, 222, 420, 122, -81.62791, 0
205.7442, 202, 420, 122, -81.62791, 0
205.7651, 171, 420, 122, -81.62791, 0
205.7851, 139, 420, 122, -81.62791, 0
205.806, 114, 420, 122, -81.62791, 0
205.8262, 95, 421, 122, -81.62791, 0
205.843, 82, 420, 122, -81.62791, 0
205.8629, 95, 420, 122, -81.62791, 0
205.8857, 95, 421, 122, -81.62791, 0
205.9041, 97, 420, 122, -81.62791, 0
205.9248, 95, 420, 122, -81.62791, 0
205.945, 88, 420, 122, -81.62791, 0
205.9609, 87, 419, 122, -81.62791, 0
205.9819, 87, 419, 122, -81.62791, 0
206.0048, 82, 419, 122, -81.62791, 0
206.023, 78, 419, 122, -81.62791, 0
206.0433, 74, 419, 122, -81.62791, 0
206.064, 74, 419, 122, -81.62791, 0
206.0811, 71, 420, 122, -81.62791, 0
206.101, 70, 421, 122, -81.62791, 0
206.1233, 74, 421, 122, -81.62791, 0
206.1424, 79, 421, 122, -81.62791, 0
206.1618, 85, 422, 122, -81.62791, 0
206.1824, 80, 422, 122, -81.62791, 0
206.198, 79, 423, 122, -81.62791, 0
206.2206, 79, 423, 121, -82.32558, 0
206.2395, 77, 423, 122, -81.62791, 0
206.2603, 76, 423, 122, -81.62791, 0
206.2809, 82, 422, 122, -81.62791, 0
206.3033, 81, 423, 122, -81.62791, 0
206.3178, 76, 423, 122, -81.62791, 0
206.3376, 75, 423, 122, -81.62791, 0
206.3584, 73, 423, 122, -81.62791, 0
206.3785, 72, 423, 122, -81.62791, 0
206.3985, 68, 423, 122, -81.62791, 0
206.4152, 65, 423, 122, -81.62791, 0
206.4369, 74, 424, 121, -82.32558, 0
206.4578, 68, 424, 121, -82.32558, 0
206.4768, 65, 424, 122, -81.62791, 0
206.4975, 65, 423, 121, -82.32558, 0
206.5218, 70, 422, 121, -82.32558, 0
206.5351, 85, 423, 121, -82.32558, 0
206.5547, 98, 422, 121, -82.32558, 0
206.5755, 115, 422, 121, -82.32558, 0
206.5963, 128, 422, 122, -81.62791, 0
206.617, 156, 422, 122, -81.62791, 0
206.6372, 199, 422, 121, -82.32558, 0
206.6537, 235, 422, 121, -82.32558, 0
206.6752, 257, 422, 121, -82.32558, 0
206.6938, 286, 422, 121, -82.32558, 0
206.7142, 298, 422, 121, -82.32558, 0
206.7374, 295, 422, 121, -82.32558, 0
206.7556, 313, 421, 121, -82.32558, 0
206.7726, 324, 422, 121, -82.32558, 0
206.7926, 345, 422, 121, -82.32558, 0
206.814, 412, 422, 121, -82.32558, 0
206.8344, 378, 421, 121, -82.32558, 0
206.8541, 356, 422, 121, -82.32558, 0
206.8737, 326, 422, 121, -82.32558, 0
206.891, 277, 422, 121, -82.32558, 0
206.9109, 251, 422, 121, -82.32558, 0
206.9317, 238, 422, 121, -82.32558, 0
206.9539, 229, 422, 121, -82.32558, 0
206.9728, 220, 422, 121, -82.32558, 0
206.9931, 214, 422, 121, -82.32558, 0
207.0093, 205, 422, 121, -82.32558, 0
207.0297, 195, 422, 121, -82.32558, 0
207.0506, 188, 422, 121, -82.32558, 0
207.0708, 165, 422, 121, -82.32558, 0
207.0921, 157, 422, 121, -82.32558, 0
207.1086, 141, 422, 121, -82.32558, 0
207.129, 129, 422, 121, -82.32558, 0
207.1488, 113, 422, 121, -82.32558, 0
207.1731, 103, 422, 121, -82.32558, 0
207.1898, 98, 422, 121, -82.32558, 0
207.21, 84, 422, 121, -82.32558, 0
207.2263, 75, 422, 121, -82.32558, 0
207.2472, 71, 422, 121, -82.32558, 0
207.2675, 64, 422, 121, -82.32558, 0
207.2875, 60, 422, 121, -82.32558, 0
207.3083, 59, 422, 121, -82.32558, 0
207.3284, 54, 422, 121, -82.32558, 0
207.345, 50, 423, 121, -82.32558, 0
207.3654, 49, 423, 121, -82.32558, 0
207.3881, 46, 423, 121, -82.32558, 0
207.4067, 48, 422, 121, -82.32558, 0
207.4267, 62, 423, 121, -82.32558, 0
207.4473, 58, 423, 121, -82.32558, 0
207.4635, 54, 423, 121, -82.32558, 0
207.4853, 60, 423, 121, -82.32558, 0
207.5052, 58, 423, 121, -82.32558, 0
207.5248, 69, 423, 121, -82.32558, 0
207.546, 75, 423, 121, -82.32558, 0
207.5665, 105, 423, 121, -82.32558, 0
207.5844, 104, 425, 121, -82.32558, 0
207.6043, 96, 424, 121, -82.32558, 0
207.6237, 93, 425, 121, -82.32558, 0
207.6439, 99, 424, 121, -82.32558, 0
207.6646, 102, 425, 121, -82.32558, 0
207.6864, 102, 425, 121, -82.32558, 0
207.705, 109, 424, 121, -82.32558, 0
207.7227, 114, 425, 120, -83.02325, 0
207.7425, 116, 425, 119, -83.72093, 0
207.7636, 119, 424, 119, -83.72093, 0
207.785, 114, 424, 120, -83.02325, 0
207.8014, 110, 424, 119, -83.72093, 0
207.8207, 114, 424, 119, -83.72093, 0
207.8409, 110, 424, 120, -83.02325, 0
207.8612, 106, 424, 120, -83.02325, 0
207.8818, 107, 424, 120, -83.02325, 0
207.9037, 107, 424, 120, -83.02325, 0
207.9207, 107, 424, 120, -83.02325, 0
207.9389, 104, 424, 120, -83.02325, 0
207.9595, 109, 424, 120, -83.02325, 0
207.9801, 110, 424, 120, -83.02325, 0
208.0015, 112, 424, 120, -83.02325, 0
208.0223, 112, 424, 120, -83.02325, 0
208.0378, 109, 423, 120, -83.02325, 0
208.0587, 108, 423, 120, -83.02325, 0
208.0783, 103, 422, 120, -83.02325, 0
208.0989, 95, 420, 120, -83.02325, 0
208.1204, 86, 418, 120, -83.02325, 0
208.1394, 77, 416, 121, -82.32558, 0
208.1561, 73, 412, 121, -82.32558, 0
208.1765, 76, 407, 122, -81.62791, 0
208.1968, 85, 403, 123, -80.93023, 0
208.2182, 106, 395, 126, -78.83721, 180
208.2387, 141, 392, 131, -75.34884, 180
208.2585, 159, 403, 83, -108.8372, 180
208.2747, 202, 414, 77, -113.0233, 180
208.2947, 252, 425, 87, -106.0465, 180
208.3152, 315, 431, 88, -105.3488, 180
208.3367, 377, 439, 101, -96.27907, 180
208.3565, 434, 443, 109, -90.69768, 180
208.3769, 508, 442, 113, -87.90697, 180
208.3935, 579, 442, 123, -80.93023, 180
208.4138, 649, 440, 133, -73.95349, 180
208.4356, 657, 439, 142, -67.67442, 180
208.4557, 659, 437, 146, -64.88372, 180
208.475, 655, 443, 153, -60, 180
208.4957, 656, 444, 159, -55.81395, 180
208.5128, 663, 439, 163, -53.02325, 180
208.5336, 664, 440, 167, -50.23256, 180
208.5537, 666, 442, 171, -47.44186, 180
208.5735, 670, 441, 179, -41.86047, 180
208.5942, 674, 443, 184, -38.37209, 180
208.6105, 679, 443, 191, -33.48837, 180
208.631, 688, 443, 198, -28.60465, 180
208.631: Grabbed object
208.6533, 693, 444, 202, -25.81395, 180
208.673, 696, 442, 209, -20.93023, 180
208.6932, 700, 445, 215, -16.74419, 180
208.7138, 704, 444, 219, -13.95349, 180
208.7291, 707, 445, 223, -11.16279, 180
208.7497, 712, 445, 227, -8.372093, 180
208.7705, 720, 444, 235, -2.790698, 180
208.7906, 727, 443, 239, 0, 180
208.8109, 726, 443, 239, 0, 180
208.8313, 744, 437, 252, 9.069767, 180
208.848, 724, 448, 241, 1.395349, 180
208.8693, 725, 443, 239, 0, 180
208.8898, 725, 443, 238, -0.6976744, 180
208.9133, 726, 444, 239, 0, 180
208.9323, 742, 441, 252, 9.069767, 180
208.9531, 726, 447, 239, 0, 180
208.9698, 726, 449, 239, 0, 180
208.9894, 726, 452, 238, -0.6976744, 180
209.01, 726, 456, 238, -0.6976744, 0
209.03, 637, 474, 170, -48.13953, 0
209.0516, 666, 468, 187, -36.27907, 0
209.0735, 645, 464, 171, -47.44186, 0
209.0892, 644, 457, 166, -50.93023, 0
209.1086, 645, 453, 160, -55.11628, 0
209.1276, 645, 450, 156, -57.90698, 0
209.1472, 647, 450, 154, -59.30233, 0
209.1678, 655, 448, 154, -59.30233, 0
209.1876, 657, 448, 151, -61.39535, 0
209.2044, 660, 448, 148, -63.48837, 0
209.2246, 661, 447, 144, -66.27907, 0
209.245, 657, 447, 140, -69.06977, 0
209.2679, 656, 453, 137, -71.16279, 0
209.2892, 654, 448, 129, -76.74419, 0
209.2892: Released object
209.3104, 602, 448, 123, -80.93023, 0
209.3262, 546, 447, 119, -83.72093, 0
209.3466, 479, 449, 114, -87.2093, 0
209.3665, 396, 447, 109, -90.69768, 0
209.3879, 310, 448, 105, -93.48837, 0
209.4076, 247, 454, 105, -93.48837, 0
209.4275, 227, 448, 98, -98.37209, 0
209.4444, 226, 450, 96, -99.76744, 0
209.4651, 226, 445, 92, -102.5581, 0
209.4877, 251, 441, 91, -103.2558, 0
209.5049, 257, 451, 90, -103.9535, 0
209.5245, 288, 436, 88, -105.3488, 0
209.5443, 307, 433, 92, -102.5581, 0
209.5605, 317, 431, 94, -101.1628, 0
209.5808, 325, 428, 96, -99.76744, 0
209.6025, 330, 427, 98, -98.37209, 0
209.6219, 323, 426, 101, -96.27907, 0
209.6426, 305, 425, 104, -94.18604, 0
209.6632, 275, 423, 106, -92.7907, 0
209.6792, 235, 423, 107, -92.09303, 0
209.6999, 206, 422, 108, -91.39535, 0
209.7203, 199, 420, 108, -91.39535, 0
209.7432, 194, 419, 108, -91.39535, 0
209.7614, 192, 418, 108, -91.39535, 0
209.7783, 203, 415, 108, -91.39535, 0
209.798, 187, 412, 109, -90.69768, 0
209.8194, 176, 408, 109, -90.69768, 0
209.839, 175, 404, 111, -89.30232, 0
209.8594, 168, 400, 114, -87.2093, 0
209.8799, 170, 394, 116, -85.81396, 180
209.8963, 175, 390, 122, -81.62791, 180
209.9173, 155, 411, 70, -117.907, 180
209.9377, 167, 423, 70, -117.907, 180
209.9618, 190, 428, 72, -116.5116, 180
209.9806, 209, 436, 83, -108.8372, 180
210.0016, 237, 445, 87, -106.0465, 180
210.0197, 258, 444, 94, -101.1628, 180
210.0391, 281, 445, 103, -94.88372, 180
210.0567, 312, 444, 115, -86.51163, 180
210.0769, 339, 444, 125, -79.53488, 180
210.0996, 357, 441, 129, -76.74419, 180
210.1192, 365, 454, 132, -74.65116, 180
210.1357, 389, 443, 141, -68.37209, 180
210.1544, 406, 444, 144, -66.27907, 180
210.1757, 427, 437, 139, -69.76744, 180
210.1952, 430, 438, 149, -62.7907, 180
210.216, 412, 438, 148, -63.48837, 180
210.2368, 390, 438, 155, -58.60465, 180
210.2535, 361, 438, 158, -56.51163, 180
210.2733, 335, 436, 158, -56.51163, 180
210.2947, 285, 446, 166, -50.93023, 180
210.314, 238, 440, 168, -49.53489, 180
210.3359, 195, 441, 174, -45.34884, 180
210.3552, 161, 441, 181, -40.46511, 180
210.3736, 141, 443, 186, -36.97675, 180
210.3917, 117, 444, 189, -34.88372, 180
210.4127, 102, 444, 203, -25.11628, 180
210.4335, 89, 452, 209, -20.93023, 180
210.4539, 84, 444, 213, -18.13953, 180
210.4739, 91, 443, 216, -16.04651, 180
210.4905, 99, 444, 222, -11.86047, 180
210.5104, 96, 445, 227, -8.372093, 180
210.531, 92, 444, 231, -5.581395, 180
210.5527, 93, 444, 236, -2.093023, 180
210.5724, 99, 443, 239, 0, 180
210.5935, 103, 443, 239, 0, 180
210.6089, 107, 443, 238, -0.6976744, 180
210.6295, 113, 443, 238, -0.6976744, 180
210.6501, 113, 443, 239, 0, 180
210.6703, 115, 442, 238, -0.6976744, 180
210.6908, 112, 442, 238, -0.6976744, 180
210.7099, 110, 442, 238, -0.6976744, 180
210.7312, 107, 442, 238, -0.6976744, 180
210.7511, 104, 442, 238, -0.6976744, 180
210.7719, 93, 442, 239, 0, 180
210.7922, 84, 442, 239, 0, 180
210.8143, 80, 441, 239, 0, 180
210.8298, 78, 442, 238, -0.6976744, 180
210.8492, 75, 442, 238, -0.6976744, 180
210.8701, 72, 441, 238, -0.6976744, 180
210.8907, 73, 441, 239, 0, 180
210.9105, 70, 442, 238, -0.6976744, 180
210.931, 69, 442, 238, -0.6976744, 180
210.9485, 66, 442, 238, -0.6976744, 180
210.9686, 64, 442, 238, -0.6976744, 180
210.9892, 63, 442, 238, -0.6976744, 180
211.009, 62, 442, 238, -0.6976744, 180
211.0308, 61, 442, 238, -0.6976744, 180
211.0501, 63, 443, 238, -0.6976744, 180
211.0697, 68, 442, 238, -0.6976744, 180
211.0873, 71, 442, 238, -0.6976744, 180
211.1061, 75, 443, 238, -0.6976744, 180
211.1254, 77, 442, 238, -0.6976744, 180
211.1454, 78, 442, 238, -0.6976744, 180
211.1666, 78, 442, 238, -0.6976744, 180
211.1842, 81, 443, 238, -0.6976744, 180
211.2044, 80, 442, 238, -0.6976744, 180
211.2242, 81, 443, 239, 0, 180
211.2458, 82, 442, 239, 0, 180
211.2648, 85, 442, 239, 0, 180
211.2867, 86, 442, 239, 0, 180
211.3036, 89, 442, 239, 0, 180
211.3231, 93, 442, 239, 0, 180
211.3432, 92, 440, 239, 0, 180
211.3636, 90, 438, 240, 0.6976744, 180
211.3848, 87, 433, 239, 0, 180
211.4047, 84, 425, 236, -2.093023, 180
211.4211, 81, 417, 221, -12.55814, 180
211.4411, 74, 418, 178, -42.55814, 180
211.4632, 64, 456, 171, -47.44186, 0
211.483, 77, 443, 234, -3.488372, 0
211.5035, 69, 444, 210, -20.23256, 0
211.5236, 69, 443, 195, -30.69767, 0
211.5397, 72, 441, 187, -36.27907, 0
211.5595, 79, 442, 187, -36.27907, 0
211.5802, 95, 439, 187, -36.27907, 0
211.6008, 114, 430, 187, -36.27907, 0
211.6214, 149, 426, 193, -32.09302, 0
211.6418, 217, 425, 197, -29.30233, 0
211.6587, 276, 424, 199, -27.90698, 0
211.6785, 318, 422, 204, -24.4186, 0
211.6983, 338, 421, 209, -20.93023, 0
211.7199, 340, 421, 213, -18.13953, 0
211.7398, 322, 421, 214, -17.44186, 0
211.7604, 296, 421, 214, -17.44186, 0
211.7765, 269, 421, 214, -17.44186, 0
211.7968, 247, 421, 214, -17.44186, 0
211.8176, 225, 422, 214, -17.44186, 0
211.8381, 205, 421, 214, -17.44186, 0
211.8585, 188, 421, 214, -17.44186, 0
211.8799, 176, 421, 214, -17.44186, 0
211.8953, 160, 421, 214, -17.44186, 0
211.9156, 149, 421, 214, -17.44186, 0
211.937, 131, 421, 214, -17.44186, 0
211.9567, 117, 421, 214, -17.44186, 0
211.9772, 100, 421, 214, -17.44186, 0
211.9976, 86, 421, 214, -17.44186, 0
212.0142, 79, 421, 214, -17.44186, 0
212.0353, 77, 422, 214, -17.44186, 0
212.0549, 85, 421, 214, -17.44186, 0
212.0758, 97, 422, 214, -17.44186, 0
212.0971, 106, 421, 214, -17.44186, 0
212.1167, 114, 421, 214, -17.44186, 0
212.1356, 121, 421, 214, -17.44186, 0
212.1546, 135, 421, 214, -17.44186, 0
212.1739, 152, 421, 214, -17.44186, 0
212.1942, 161, 421, 214, -17.44186, 0
212.2144, 168, 421, 213, -18.13953, 0
212.231, 176, 421, 214, -17.44186, 0
212.2531, 178, 422, 214, -17.44186, 0
212.2718, 179, 422, 213, -18.13953, 0
212.2926, 179, 420, 214, -17.44186, 0
212.3136, 174, 422, 214, -17.44186, 0
212.3334, 171, 421, 214, -17.44186, 0
212.3507, 172, 422, 213, -18.13953, 0
212.3704, 170, 421, 214, -17.44186, 0
212.3909, 164, 422, 213, -18.13953, 0
212.4111, 161, 421, 214, -17.44186, 0
212.4314, 158, 422, 213, -18.13953, 0
212.4531, 155, 421, 213, -18.13953, 0
212.4694, 158, 421, 213, -18.13953, 0
212.489, 157, 420, 213, -18.13953, 0
212.5127, 150, 420, 213, -18.13953, 0
212.536, 125, 420, 214, -17.44186, 0
212.554, 127, 419, 214, -17.44186, 0
212.5714, 117, 418, 214, -17.44186, 0
212.5879, 105, 417, 214, -17.44186, 0
212.6084, 107, 416, 214, -17.44186, 0
212.6289, 111, 416, 214, -17.44186, 0
212.649, 117, 415, 214, -17.44186, 0
212.6708, 135, 414, 214, -17.44186, 0
212.6902, 150, 415, 214, -17.44186, 0
212.7066, 164, 416, 214, -17.44186, 0
212.7269, 183, 416, 214, -17.44186, 0
212.7484, 208, 417, 214, -17.44186, 0
212.7686, 232, 418, 214, -17.44186, 0
212.7885, 245, 419, 214, -17.44186, 0
212.8092, 249, 420, 214, -17.44186, 0
212.8258, 243, 420, 214, -17.44186, 0
212.8461, 234, 420, 214, -17.44186, 0
212.8667, 222, 422, 214, -17.44186, 0
212.8877, 204, 422, 214, -17.44186, 0
212.9076, 179, 421, 214, -17.44186, 0
212.9309, 153, 423, 214, -17.44186, 0
212.9503, 125, 422, 214, -17.44186, 0
212.9681, 104, 423, 214, -17.44186, 0
212.9894, 92, 421, 213, -18.13953, 0
213.0086, 88, 422, 214, -17.44186, 0
213.0255, 94, 422, 214, -17.44186, 0
213.0462, 103, 421, 214, -17.44186, 0
213.0629, 116, 422, 213, -18.13953, 0
213.0853, 133, 422, 213, -18.13953, 0
213.104, 149, 422, 214, -17.44186, 0
213.1242, 171, 422, 214, -17.44186, 0
213.1446, 188, 422, 213, -18.13953, 0
213.1656, 208, 422, 214, -17.44186, 0
213.1826, 230, 422, 213, -18.13953, 0
213.2028, 250, 422, 214, -17.44186, 0
213.2224, 264, 422, 214, -17.44186, 0
213.2426, 276, 422, 214, -17.44186, 0
213.2634, 297, 422, 214, -17.44186, 0
213.2836, 319, 422, 214, -17.44186, 0
213.3007, 332, 423, 214, -17.44186, 0
213.3204, 343, 424, 214, -17.44186, 0
213.3407, 354, 424, 213, -18.13953, 0
213.364, 371, 423, 213, -18.13953, 0
213.364: Grabbed object
213.3867, 385, 425, 212, -18.83721, 0
213.4023, 406, 425, 210, -20.23256, 0
213.4225, 429, 424, 209, -20.93023, 0
213.4416, 453, 424, 211, -19.53488, 0
213.4617, 474, 423, 213, -18.13953, 0
213.4859, 496, 423, 213, -18.13953, 0
213.5014, 525, 422, 213, -18.13953, 0
213.5189, 547, 420, 213, -18.13953, 0
213.5381, 560, 420, 213, -18.13953, 0
213.5584, 565, 419, 213, -18.13953, 0
213.5794, 591, 419, 213, -18.13953, 0
213.6004, 594, 419, 213, -18.13953, 0
213.6201, 605, 420, 213, -18.13953, 0
213.6366, 621, 421, 213, -18.13953, 0
213.6561, 612, 423, 213, -18.13953, 0
213.6765, 622, 424, 213, -18.13953, 0
213.6969, 623, 425, 213, -18.13953, 0
213.7184, 617, 428, 208, -21.62791, 0
213.7383, 641, 430, 202, -25.81395, 0
213.7546, 609, 432, 196, -30, 0
213.7748, 564, 440, 191, -33.48837, 0
213.7958, 583, 436, 184, -38.37209, 0
213.8173, 527, 438, 178, -42.55814, 0
213.837, 469, 441, 167, -50.23256, 0
213.8581, 429, 443, 162, -53.72093, 0
213.8735, 378, 444, 159, -55.81395, 0
213.8943, 340, 443, 153, -60, 0
213.9144, 301, 446, 146, -64.88372, 0
213.9355, 272, 449, 146, -64.88372, 0
213.9547, 254, 443, 140, -69.06977, 0
213.9782, 242, 445, 136, -71.86047, 0
213.9935, 227, 448, 132, -74.65116, 0
213.9935: Released object
214.0135, 262, 447, 133, -73.95349, 0
214.0349, 216, 447, 122, -81.62791, 0
214.0541, 197, 443, 122, -81.62791, 0
214.0753, 192, 446, 121, -82.32558, 0
214.0947, 270, 445, 105, -93.48837, 0
214.1108, 307, 443, 110, -90, 0
214.1313, 367, 442, 108, -91.39535, 0
214.1533, 409, 442, 103, -94.88372, 0
214.1728, 432, 440, 102, -95.5814, 0
214.1936, 469, 440, 100, -96.97675, 0
214.2151, 494, 441, 94, -101.1628, 0
214.2352, 482, 439, 94, -101.1628, 0
214.2531, 512, 437, 90, -103.9535, 0
214.2738, 509, 433, 96, -99.76744, 0
214.2946, 515, 432, 94, -101.1628, 0
214.3143, 513, 430, 97, -99.06977, 0
214.3311, 499, 428, 99, -97.67442, 0
214.3512, 482, 428, 100, -96.97675, 0
214.3728, 454, 426, 102, -95.5814, 0
214.3921, 437, 424, 105, -93.48837, 0
214.4123, 419, 422, 109, -90.69768, 0
214.4335, 398, 420, 109, -90.69768, 0
214.4523, 384, 418, 109, -90.69768, 0
214.4702, 356, 415, 109, -90.69768, 0
214.4904, 331, 412, 110, -90, 0
214.5107, 329, 408, 111, -89.30232, 0
214.531, 305, 404, 111, -89.30232, 0
214.5518, 284, 399, 115, -86.51163, 180
214.5693, 239, 402, 95, -100.4651, 180
214.5895, 197, 415, 67, -120, 180
214.6091, 173, 429, 70, -117.907, 180
214.6292, 148, 432, 71, -117.2093, 180
214.6502, 122, 444, 80, -110.9302, 180
214.673, 113, 446, 88, -105.3488, 180
214.6895, 109, 446, 96, -99.76744, 180
214.7053, 96, 445, 112, -88.60465, 180
214.7258, 82, 446, 111, -89.30232, 180
214.7473, 79, 443, 123, -80.93023, 180
214.7678, 80, 441, 131, -75.34884, 180
214.7883, 89, 439, 132, -74.65116, 180
214.8049, 104, 441, 135, -72.55814, 180
214.8246, 137, 440, 138, -70.46512, 180
214.8457, 170, 449, 137, -71.16279, 180
214.865, 198, 439, 144, -66.27907, 180
214.8877, 205, 436, 146, -64.88372, 180
214.906, 182, 449, 152, -60.69767, 180
214.9232, 159, 443, 156, -57.90698, 180
214.9434, 140, 441, 148, -63.48837, 180
214.9638, 128, 439, 163, -53.02325, 180
214.9838, 123, 452, 166, -50.93023, 180
215.0048, 118, 440, 168, -49.53489, 180
215.025, 101, 441, 177, -43.25581, 180
215.0414, 88, 441, 173, -46.04651, 180
215.0617, 94, 442, 186, -36.97675, 180
215.0828, 113, 443, 194, -31.39535, 180
215.1055, 142, 444, 196, -30, 180
215.1233, 185, 443, 201, -26.51163, 180
215.1436, 223, 444, 211, -19.53488, 180
215.1602, 256, 448, 215, -16.74419, 180
215.18, 290, 445, 219, -13.95349, 180
215.2004, 313, 445, 225, -9.767442, 180
215.2209, 333, 442, 230, -6.27907, 180
215.2413, 351, 443, 237, -1.395349, 180
215.2577, 347, 442, 241, 1.395349, 180
215.278, 326, 443, 240, 0.6976744, 180
215.2984, 320, 443, 241, 1.395349, 180
215.3208, 312, 442, 241, 1.395349, 180
215.3395, 306, 441, 241, 1.395349, 180
215.3601, 291, 441, 241, 1.395349, 180
215.3763, 290, 442, 241, 1.395349, 180
215.3976, 278, 441, 241, 1.395349, 180
215.4183, 254, 442, 241, 1.395349, 180
215.4377, 218, 442, 241, 1.395349, 180
215.4582, 186, 441, 241, 1.395349, 180
215.4788, 162, 441, 240, 0.6976744, 180
215.4949, 142, 441, 240, 0.6976744, 180
215.5154, 128, 442, 240, 0.6976744, 180
215.5385, 122, 442, 240, 0.6976744, 180
215.5564, 115, 441, 240, 0.6976744, 180
215.577, 109, 441, 240, 0.6976744, 180
215.5975, 104, 441, 241, 1.395349, 180
215.6139, 100, 441, 240, 0.6976744, 180
215.6353, 98, 441, 241, 1.395349, 180
215.6548, 98, 441, 240, 0.6976744, 180
215.6752, 101, 441, 241, 1.395349, 180
215.6957, 99, 441, 241, 1.395349, 180
215.7164, 100, 442, 240, 0.6976744, 180
215.7345, 100, 441, 240, 0.6976744, 180
215.7539, 102, 441, 240, 0.6976744, 180
215.7737, 101, 442, 240, 0.6976744, 180
215.7941, 103, 441, 240, 0.6976744, 180
215.8153, 108, 441, 240, 0.6976744, 180
215.8358, 114, 441, 240, 0.6976744, 180
215.8531, 119, 441, 240, 0.6976744, 180
215.8727, 120, 441, 240, 0.6976744, 180
215.8938, 127, 441, 240, 0.6976744, 180
215.9136, 133, 442, 240, 0.6976744, 180
215.9349, 138, 441, 240, 0.6976744, 180
215.9553, 136, 441, 240, 0.6976744, 180
215.971, 131, 441, 240, 0.6976744, 180
215.9908, 124, 441, 240, 0.6976744, 180
216.0113, 120, 442, 240, 0.6976744, 180
216.0316, 118, 441, 240, 0.6976744, 180
216.0531, 115, 441, 240, 0.6976744, 180
216.0735, 113, 441, 240, 0.6976744, 180
216.0893, 112, 442, 240, 0.6976744, 180
216.1094, 112, 441, 240, 0.6976744, 180
216.13, 112, 442, 240, 0.6976744, 180
216.1507, 113, 442, 240, 0.6976744, 180
216.1724, 115, 441, 240, 0.6976744, 180
216.194, 115, 442, 240, 0.6976744, 180
216.2085, 117, 442, 240, 0.6976744, 180
216.2283, 122, 442, 240, 0.6976744, 180
216.2486, 124, 442, 240, 0.6976744, 180
216.2702, 125, 441, 240, 0.6976744, 180
216.2927, 130, 441, 241, 1.395349, 180
216.3131, 136, 442, 240, 0.6976744, 180
216.3298, 144, 442, 240, 0.6976744, 180
216.3501, 149, 441, 240, 0.6976744, 180
216.3706, 147, 442, 241, 1.395349, 180
216.3926, 145, 441, 241, 1.395349, 180
216.4112, 142, 441, 241, 1.395349, 180
216.4318, 141, 441, 240, 0.6976744, 180
216.4487, 138, 438, 241, 1.395349, 180
216.4691, 130, 435, 241, 1.395349, 180
216.4896, 128, 429, 239, 0, 180
216.5092, 125, 421, 233, -4.186047, 180
216.5298, 118, 414, 210, -20.23256, 180
216.5505, 112, 428, 173, -46.04651, 180
216.5686, 96, 457, 173, -46.04651, 0
216.5886, 120, 437, 239, 0, 0
216.6093, 112, 444, 211, -19.53488, 0
216.6279, 104, 442, 198, -28.60465, 0
216.6485, 101, 441, 191, -33.48837, 0
216.6691, 99, 437, 188, -35.58139, 0
216.6874, 97, 437, 176, -43.95349, 0
216.7066, 97, 431, 192, -32.7907, 0
216.7264, 96, 427, 196, -30, 0
216.7468, 95, 424, 201, -26.51163, 0
216.7659, 94, 422, 204, -24.4186, 0
216.787, 94, 421, 207, -22.32558, 0
216.8041, 94, 420, 211, -19.53488, 0
216.8242, 89, 419, 213, -18.13953, 0
216.8448, 84, 415, 214, -17.44186, 0
216.8642, 81, 418, 215, -16.74419, 0
216.8855, 78, 419, 215, -16.74419, 0
216.902, 74, 419, 214, -17.44186, 0
216.9214, 71, 419, 216, -16.04651, 0
216.9417, 68, 419, 215, -16.74419, 0
216.9625, 66, 419, 216, -16.04651, 0
216.983, 64, 418, 216, -16.04651, 0
217.0041, 64, 419, 216, -16.04651, 0
217.0215, 64, 418, 216, -16.04651, 0
217.0399, 64, 418, 216, -16.04651, 0
217.0607, 64, 418, 216, -16.04651, 0
217.0808, 64, 418, 216, -16.04651, 0
217.102, 64, 418, 216, -16.04651, 0
217.1231, 68, 418, 216, -16.04651, 0
217.1384, 72, 418, 216, -16.04651, 0
217.1582, 73, 419, 216, -16.04651, 0
217.1791, 76, 419, 216, -16.04651, 0
217.1988, 79, 418, 216, -16.04651, 0
217.2206, 80, 418, 216, -16.04651, 0
217.2407, 81, 419, 216, -16.04651, 0
217.2562, 81, 419, 216, -16.04651, 0
217.2768, 80, 419, 216, -16.04651, 0
217.2975, 80, 420, 216, -16.04651, 0
217.3187, 79, 419, 216, -16.04651, 0
217.3402, 82, 419, 216, -16.04651, 0
217.3611, 82, 419, 216, -16.04651, 0
217.378, 81, 419, 215, -16.74419, 0
217.3976, 82, 419, 216, -16.04651, 0
217.4185, 83, 419, 215, -16.74419, 0
217.4396, 84, 419, 216, -16.04651, 0
217.4606, 84, 419, 215, -16.74419, 0
217.4796, 86, 419, 215, -16.74419, 0
217.4967, 85, 419, 215, -16.74419, 0
217.5166, 86, 419, 215, -16.74419, 0
217.5379, 92, 419, 215, -16.74419, 0
217.5573, 94, 419, 216, -16.04651, 0
217.5785, 97, 419, 215, -16.74419, 0
217.5981, 98, 419, 215, -16.74419, 0
217.6151, 103, 420, 215, -16.74419, 0
217.6363, 104, 419, 215, -16.74419, 0
217.6569, 101, 420, 215, -16.74419, 0
217.6776, 100, 419, 215, -16.74419, 0
217.6969, 98, 419, 215, -16.74419, 0
217.7178, 94, 420, 215, -16.74419, 0
217.7353, 92, 419, 215, -16.74419, 0
217.7547, 91, 420, 215, -16.74419, 0
217.7745, 89, 420, 215, -16.74419, 0
217.7959, 86, 420, 215, -16.74419, 0
217.8143, 87, 420, 215, -16.74419, 0
217.8345, 85, 420, 215, -16.74419, 0
217.8513, 82, 420, 215, -16.74419, 0
217.8708, 80, 420, 215, -16.74419, 0
217.8922, 77, 421, 215, -16.74419, 0
217.9148, 74, 420, 215, -16.74419, 0
217.9368, 68, 420, 215, -16.74419, 0
217.9561, 63, 420, 215, -16.74419, 0
217.9723, 61, 420, 215, -16.74419, 0
217.9925, 58, 420, 215, -16.74419, 0
218.0135, 55, 421, 215, -16.74419, 0
218.0346, 53, 420, 215, -16.74419, 0
218.0547, 52, 421, 215, -16.74419, 0
218.0749, 52, 420, 215, -16.74419, 0
218.0927, 52, 421, 215, -16.74419, 0
218.1131, 54, 421, 215, -16.74419, 0
218.1317, 53, 421, 214, -17.44186, 0
218.1512, 56, 421, 213, -18.13953, 0
218.1725, 58, 421, 214, -17.44186, 0
218.1902, 61, 420, 214, -17.44186, 0
218.2063, 66, 421, 214, -17.44186, 0
218.2269, 66, 420, 213, -18.13953, 0
218.2501, 65, 420, 214, -17.44186, 0
218.271, 64, 420, 215, -16.74419, 0
218.2905, 65, 420, 215, -16.74419, 0
218.3129, 61, 420, 215, -16.74419, 0
218.3297, 59, 420, 215, -16.74419, 0
218.348, 61, 420, 215, -16.74419, 0
218.3663, 66, 420, 215, -16.74419, 0
218.3663: Grabbed object
218.3873, 83, 419, 215, -16.74419, 0
218.4071, 110, 420, 215, -16.74419, 0
218.4237, 130, 419, 214, -17.44186, 0
218.4439, 135, 419, 215, -16.74419, 0
218.465, 126, 420, 214, -17.44186, 0
218.4859, 136, 420, 214, -17.44186, 0
218.5053, 162, 421, 215, -16.74419, 0
218.5278, 157, 423, 214, -17.44186, 0
218.543, 162, 425, 211, -19.53488, 0
218.5639, 156, 427, 207, -22.32558, 0
218.5845, 144, 430, 203, -25.11628, 0
218.6039, 128, 432, 198, -28.60465, 0
218.6241, 112, 434, 190, -34.18605, 0
218.6447, 108, 437, 183, -39.06977, 0
218.661, 107, 440, 175, -44.65116, 0
218.6816, 90, 447, 168, -49.53489, 0
218.7035, 78, 446, 159, -55.81395, 0
218.7233, 72, 448, 151, -61.39535, 0
218.7437, 68, 446, 142, -67.67442, 0
218.7632, 65, 446, 142, -67.67442, 0
218.7795, 71, 448, 140, -69.06977, 0
218.8008, 69, 449, 135, -72.55814, 0
218.8008: Released object
218.8216, 86, 442, 134, -73.25581, 0
218.8413, 101, 439, 131, -75.34884, 0
218.8618, 124, 444, 135, -72.55814, 0
218.8821, 172, 440, 127, -78.13953, 0
218.8987, 187, 441, 123, -80.93023, 0
218.9199, 185, 444, 123, -80.93023, 0
218.9396, 208, 444, 114, -87.2093, 0
218.9615, 256, 444, 112, -88.60465, 0
218.9804, 352, 445, 107, -92.09303, 0
219.0018, 469, 443, 102, -95.5814, 0
219.0182, 579, 445, 97, -99.06977, 0
219.0379, 665, 447, 94, -101.1628, 0
219.0582, 668, 443, 88, -105.3488, 0
219.0812, 675, 438, 90, -103.9535, 0
219.1028, 683, 434, 92, -102.5581, 0
219.1231, 693, 432, 96, -99.76744, 0
219.1398, 697, 429, 95, -100.4651, 0
219.1618, 702, 429, 94, -101.1628, 0
219.1776, 708, 427, 100, -96.97675, 0
219.198, 712, 426, 97, -99.06977, 0
219.2191, 719, 426, 104, -94.18604, 0
219.2361, 722, 425, 106, -92.7907, 0
219.255, 723, 423, 105, -93.48837, 0
219.2755, 726, 424, 108, -91.39535, 0
219.2958, 705, 422, 109, -90.69768, 0
219.3192, 681, 422, 108, -91.39535, 0
219.3391, 649, 421, 108, -91.39535, 0
219.3549, 622, 419, 108, -91.39535, 0
219.3774, 602, 417, 109, -90.69768, 0
219.3965, 578, 414, 109, -90.69768, 0
219.4168, 562, 411, 110, -90, 0
219.4379, 537, 408, 110, -90, 0
219.4576, 522, 404, 110, -90, 0
219.4742, 504, 400, 114, -87.2093, 0
219.4954, 480, 397, 120, -83.02325, 180
219.5149, 415, 406, 92, -102.5581, 180
219.5363, 364, 419, 67, -120, 180
219.5567, 329, 429, 72, -116.5116, 180
219.5778, 302, 436, 73, -115.814, 180
219.594, 275, 445, 81, -110.2326, 180
219.6138, 247, 446, 90, -103.9535, 180
219.6343, 220, 446, 102, -95.5814, 180
219.6546, 178, 451, 115, -86.51163, 180
219.6745, 148, 442, 120, -83.02325, 180
219.695, 127, 441, 124, -80.23256, 180
219.7115, 127, 442, 123, -80.93023, 180
219.732, 149, 441, 131, -75.34884, 180
219.7548, 185, 439, 124, -80.23256, 180
219.7735, 236, 438, 136, -71.86047, 180
219.7946, 292, 437, 139, -69.76744, 180
219.8132, 352, 436, 142, -67.67442, 180
219.8319, 384, 437, 143, -66.97675, 180
219.851, 400, 436, 150, -62.09302, 180
219.8721, 384, 446, 154, -59.30233, 180
219.892, 374, 437, 157, -57.2093, 180
219.9124, 366, 438, 159, -55.81395, 180
219.9313, 337, 438, 151, -61.39535, 180
219.9482, 289, 452, 154, -59.30233, 180
219.9688, 263, 451, 158, -56.51163, 180
219.9887, 235, 454, 161, -54.41861, 180
220.013, 194, 458, 165, -51.62791, 0
220.0318, 188, 413, 271, 22.32558, 0
220.0524, 148, 437, 223, -11.16279, 0
220.07, 128, 437, 207, -22.32558, 0
220.0898, 118, 434, 200, -27.2093, 0
220.1093, 112, 433, 194, -31.39535, 0
220.1279, 116, 428, 200, -27.2093, 0
220.1486, 118, 425, 203, -25.11628, 0
220.166, 129, 424, 205, -23.72093, 0
220.1866, 143, 425, 204, -24.4186, 0
220.2057, 149, 424, 209, -20.93023, 0
220.2269, 136, 423, 210, -20.23256, 0
220.2484, 126, 422, 211, -19.53488, 0
220.269, 115, 421, 212, -18.83721, 0
220.2875, 103, 420, 213, -18.13953, 0
220.3065, 93, 421, 214, -17.44186, 0
220.3264, 88, 421, 214, -17.44186, 0
220.3464, 87, 420, 216, -16.04651, 0
220.3672, 89, 420, 216, -16.04651, 0
220.3887, 96, 421, 215, -16.74419, 0
220.4047, 110, 421, 216, -16.04651, 0
220.4252, 126, 421, 216, -16.04651, 0
220.4467, 143, 421, 216, -16.04651, 0
220.4635, 156, 421, 214, -17.44186, 0
220.4857, 176, 421, 216, -16.04651, 0
220.5048, 205, 421, 215, -16.74419, 0
220.5212, 230, 421, 214, -17.44186, 0
220.5418, 249, 421, 215, -16.74419, 0
220.5624, 262, 421, 216, -16.04651, 0
220.5827, 268, 421, 216, -16.04651, 0
220.6048, 265, 421, 216, -16.04651, 0
220.625, 259, 420, 216, -16.04651, 0
220.6417, 249, 421, 215, -16.74419, 0
220.6637, 233, 421, 215, -16.74419, 0
220.6833, 214, 421, 215, -16.74419, 0
220.704, 199, 421, 216, -16.04651, 0
220.724, 189, 422, 215, -16.74419, 0
220.7452, 178, 421, 215, -16.74419, 0
220.7605, 164, 421, 215, -16.74419, 0
220.7835, 145, 421, 215, -16.74419, 0
220.8017, 129, 422, 215, -16.74419, 0
220.8228, 115, 421, 215, -16.74419, 0
220.8424, 103, 421, 215, -16.74419, 0
220.8643, 93, 421, 215, -16.74419, 0
220.8803, 84, 421, 215, -16.74419, 0
220.8996, 78, 421, 215, -16.74419, 0
220.9193, 73, 422, 215, -16.74419, 0
220.9389, 69, 421, 215, -16.74419, 0
220.9595, 67, 422, 215, -16.74419, 0
220.9798, 66, 421, 215, -16.74419, 0
220.9961, 64, 422, 215, -16.74419, 0
221.0168, 65, 422, 215, -16.74419, 0
221.0377, 67, 422, 215, -16.74419, 0
221.061, 70, 422, 215, -16.74419, 0
221.0834, 75, 422, 215, -16.74419, 0
221.1025, 82, 422, 215, -16.74419, 0
221.1199, 90, 422, 215, -16.74419, 0
221.1378, 95, 423, 214, -17.44186, 0
221.1572, 103, 425, 206, -23.02326, 0
221.1785, 115, 422, 213, -18.13953, 0
221.1985, 128, 422, 213, -18.13953, 0
221.2184, 144, 423, 212, -18.83721, 0
221.2361, 161, 423, 211, -19.53488, 0
221.2585, 175, 423, 212, -18.83721, 0
221.2755, 182, 423, 213, -18.13953, 0
221.2973, 192, 423, 213, -18.13953, 0
221.3172, 202, 423, 213, -18.13953, 0
221.3387, 217, 423, 213, -18.13953, 0
221.3545, 232, 423, 213, -18.13953, 0
221.3737, 259, 424, 213, -18.13953, 0
221.395, 282, 424, 213, -18.13953, 0
221.4131, 301, 424, 213, -18.13953, 0
221.4344, 316, 424, 213, -18.13953, 0
221.4557, 330, 424, 212, -18.83721, 0
221.4724, 346, 424, 213, -18.13953, 0
221.4936, 356, 424, 212, -18.83721, 0
221.5143, 368, 424, 212, -18.83721, 0
221.5338, 374, 423, 213, -18.13953, 0
221.5569, 371, 424, 213, -18.13953, 0
221.5721, 368, 424, 213, -18.13953, 0
221.5925, 370, 424, 213, -18.13953, 0
221.612, 376, 423, 211, -19.53488, 0
221.6326, 378, 423, 211, -19.53488, 0
221.6526, 377, 423, 211, -19.53488, 0
221.6719, 369, 423, 211, -19.53488, 0
221.6883, 363, 423, 211, -19.53488, 0
221.7095, 354, 423, 211, -19.53488, 0
221.7307, 340, 423, 210, -20.23256, 0
221.7499, 327, 423, 211, -19.53488, 0
221.7712, 315, 422, 210, -20.23256, 0
221.791, 306, 422, 210, -20.23256, 0
221.8095, 297, 422, 209, -20.93023, 0
221.8284, 281, 422, 209, -20.93023, 0
221.8483, 275, 422, 209, -20.93023, 0
221.8698, 275, 421, 210, -20.23256, 0
221.8886, 273, 421, 209, -20.93023, 0
221.909, 271, 421, 208, -21.62791, 0
221.9254, 276, 421, 208, -21.62791, 0
221.9473, 282, 421, 209, -20.93023, 0
221.9665, 278, 422, 209, -20.93023, 0
221.9873, 268, 421, 208, -21.62791, 0
222.0077, 264, 421, 208, -21.62791, 0
222.0278, 264, 421, 208, -21.62791, 0
222.0441, 267, 421, 207, -22.32558, 0
222.0646, 288, 420, 208, -21.62791, 0
222.0866, 278, 420, 209, -20.93023, 0
222.1067, 280, 420, 209, -20.93023, 0
222.1263, 292, 418, 209, -20.93023, 0
222.1477, 297, 418, 209, -20.93023, 0
222.1661, 306, 417, 209, -20.93023, 0
222.184, 317, 416, 209, -20.93023, 0
222.2042, 331, 415, 210, -20.23256, 0
222.2243, 371, 415, 210, -20.23256, 0
222.2454, 419, 415, 210, -20.23256, 0
222.265, 470, 414, 211, -19.53488, 0
222.282, 509, 413, 211, -19.53488, 0
222.303, 521, 411, 211, -19.53488, 0
222.3232, 531, 409, 212, -18.83721, 0
222.3439, 518, 407, 215, -16.74419, 0
222.3644, 515, 405, 218, -14.65116, 0
222.3853, 515, 404, 223, -11.16279, 0
222.4012, 439, 413, 228, -7.674418, 0
222.4238, 391, 403, 234, -3.488372, 0
222.4449, 349, 401, 237, -1.395349, 0
222.4643, 308, 402, 236, -2.093023, 0
222.486, 274, 402, 227, -8.372093, 0
222.5061, 254, 407, 228, -7.674418, 0
222.5224, 248, 408, 223, -11.16279, 0
222.5405, 252, 409, 220, -13.25581, 0
222.5609, 261, 411, 220, -13.25581, 0
222.5832, 273, 413, 220, -13.25581, 0
222.6029, 290, 415, 219, -13.95349, 0
222.6225, 313, 417, 219, -13.95349, 0
222.6389, 355, 419, 219, -13.95349, 0
222.6589, 411, 422, 217, -15.34884, 0
222.6797, 481, 425, 215, -16.74419, 0
222.7001, 556, 426, 211, -19.53488, 0
222.7214, 607, 426, 208, -21.62791, 0
222.7427, 563, 425, 205, -23.72093, 0
222.7576, 522, 425, 203, -25.11628, 0
222.7778, 429, 423, 205, -23.72093, 0
222.7995, 341, 423, 209, -20.93023, 0
222.8201, 272, 421, 213, -18.13953, 0
222.8393, 226, 421, 214, -17.44186, 0
222.8597, 196, 421, 213, -18.13953, 0
222.876, 178, 420, 213, -18.13953, 0
222.8968, 173, 420, 213, -18.13953, 0
222.9174, 174, 422, 214, -17.44186, 0
222.938, 175, 421, 213, -18.13953, 0
222.9583, 179, 422, 213, -18.13953, 0
222.9744, 186, 422, 213, -18.13953, 0
222.995, 196, 422, 213, -18.13953, 0
223.0169, 207, 422, 213, -18.13953, 0
223.0373, 216, 422, 213, -18.13953, 0
223.0564, 225, 422, 213, -18.13953, 0
223.0769, 235, 421, 213, -18.13953, 0
223.0935, 242, 422, 213, -18.13953, 0
223.1136, 246, 422, 213, -18.13953, 0
223.1355, 250, 422, 213, -18.13953, 0
223.155, 251, 422, 213, -18.13953, 0
223.1761, 254, 422, 213, -18.13953, 0
223.195, 254, 423, 213, -18.13953, 0
223.2132, 250, 422, 213, -18.13953, 0
223.2319, 237, 422, 213, -18.13953, 0
223.2542, 219, 423, 213, -18.13953, 0
223.2739, 204, 422, 213, -18.13953, 0
223.2933, 195, 422, 213, -18.13953, 0
223.3139, 188, 423, 213, -18.13953, 0
223.3301, 180, 422, 213, -18.13953, 0
223.3511, 176, 422, 213, -18.13953, 0
223.3739, 172, 423, 213, -18.13953, 0
223.3943, 171, 422, 213, -18.13953, 0
223.3943: Grabbed object
223.4141, 172, 423, 213, -18.13953, 0
223.4373, 166, 423, 213, -18.13953, 0
223.4516, 162, 423, 213, -18.13953, 0
223.472, 168, 423, 213, -18.13953, 0
223.4918, 177, 423, 213, -18.13953, 0
223.512, 184, 423, 213, -18.13953, 0
223.5341, 193, 423, 213, -18.13953, 0
223.5537, 195, 421, 213, -18.13953, 0
223.5702, 184, 420, 213, -18.13953, 0
223.5886, 165, 420, 213, -18.13953, 0
223.6109, 136, 420, 213, -18.13953, 0
223.6307, 115, 420, 213, -18.13953, 0
223.6545, 102, 421, 213, -18.13953, 0
223.6726, 142, 421, 213, -18.13953, 0
223.6885, 214, 423, 213, -18.13953, 0
223.7086, 280, 425, 213, -18.13953, 0
223.7292, 338, 426, 212, -18.83721, 0
223.7502, 386, 428, 208, -21.62791, 0
223.7717, 421, 431, 203, -25.11628, 0
223.7911, 444, 433, 197, -29.30233, 0
223.8075, 460, 438, 182, -39.76744, 0
223.828, 465, 437, 182, -39.76744, 0
223.848, 461, 439, 175, -44.65116, 0
223.8718, 439, 442, 166, -50.93023, 0
223.8897, 388, 444, 161, -54.41861, 0
223.9099, 339, 453, 156, -57.90698, 0
223.9268, 295, 445, 149, -62.7907, 0
223.9469, 272, 452, 142, -67.67442, 0
223.9678, 266, 445, 138, -70.46512, 0
223.9889, 279, 446, 135, -72.55814, 0
223.9889: Released object
224.0081, 278, 448, 133, -73.95349, 0
224.0245, 228, 443, 128, -77.44186, 0
224.0447, 202, 444, 124, -80.23256, 0
224.0659, 177, 443, 119, -83.72093, 0
224.0887, 176, 445, 117, -85.11628, 0
224.1066, 231, 443, 115, -86.51163, 0
224.1269, 215, 443, 109, -90.69768, 0
224.1447, 207, 444, 102, -95.5814, 0
224.1647, 186, 443, 98, -98.37209, 0
224.1841, 233, 445, 103, -94.88372, 0
224.2043, 236, 440, 98, -98.37209, 0
224.2238, 277, 437, 98, -98.37209, 0
224.2436, 364, 440, 99, -97.67442, 0
224.2598, 481, 433, 98, -98.37209, 0
224.2811, 586, 431, 100, -96.97675, 0
224.3029, 652, 429, 100, -96.97675, 0
224.3214, 709, 427, 106, -92.7907, 0
224.3422, 714, 427, 108, -91.39535, 0
224.3631, 715, 426, 108, -91.39535, 0
224.3791, 716, 425, 108, -91.39535, 0
224.3997, 720, 425, 110, -90, 0
224.4221, 724, 424, 112, -88.60465, 0
224.4408, 700, 422, 113, -87.90697, 0
224.4611, 671, 421, 113, -87.90697, 0
224.4816, 650, 420, 113, -87.90697, 0
224.5008, 613, 417, 113, -87.90697, 0
224.5191, 590, 415, 113, -87.90697, 0
224.5389, 566, 413, 114, -87.2093, 0
224.5594, 532, 410, 114, -87.2093, 0
224.5804, 502, 407, 115, -86.51163, 0
224.601, 488, 403, 117, -85.11628, 0
224.6187, 485, 401, 121, -82.32558, 0
224.6373, 491, 399, 125, -79.53488, 180
224.6573, 441, 404, 99, -97.67442, 180
224.6781, 398, 419, 74, -115.1163, 180
224.698, 373, 428, 76, -113.7209, 180
224.7155, 358, 438, 79, -111.6279, 180
224.7362, 334, 443, 85, -107.4419, 180
224.7562, 301, 445, 94, -101.1628, 180
224.7786, 258, 451, 106, -92.7907, 180
224.7999, 210, 443, 116, -85.81396, 180
224.8208, 172, 442, 122, -81.62791, 180
224.8371, 148, 451, 130, -76.04651, 180
224.8568, 157, 440, 129, -76.74419, 180
224.8743, 184, 444, 131, -75.34884, 180
224.8951, 225, 441, 126, -78.83721, 180
224.9157, 275, 437, 138, -70.46512, 180
224.938, 318, 438, 141, -68.37209, 180
224.9538, 363, 439, 146, -64.88372, 180
224.9738, 396, 438, 149, -62.7907, 180
224.9937, 440, 438, 154, -59.30233, 180
225.0138, 505, 439, 150, -62.09302, 180
225.0357, 542, 449, 158, -56.51163, 180
225.0551, 547, 441, 165, -51.62791, 180
225.0715, 553, 448, 164, -52.32558, 180
225.0918, 553, 441, 173, -46.04651, 180
225.113, 525, 442, 181, -40.46511, 180
225.1339, 480, 445, 186, -36.97675, 180
225.1572, 431, 443, 191, -33.48837, 180
225.174, 380, 443, 200, -27.2093, 180
225.1904, 318, 443, 205, -23.72093, 180
225.211, 263, 445, 201, -26.51163, 180
225.2309, 222, 444, 210, -20.23256, 180
225.2523, 190, 445, 217, -15.34884, 180
225.2716, 155, 449, 218, -14.65116, 180
225.2928, 131, 463, 173, -46.04651, 0
225.3088, 129, 445, 214, -17.44186, 0
225.3289, 116, 443, 199, -27.90698, 0
225.3493, 103, 444, 188, -35.58139, 0
225.3712, 103, 438, 187, -36.27907, 0
225.3902, 96, 435, 186, -36.97675, 0
225.4107, 95, 437, 191, -33.48837, 0
225.427, 91, 433, 195, -30.69767, 0
225.45, 89, 426, 197, -29.30233, 0
225.4708, 83, 425, 199, -27.90698, 0
225.4906, 81, 423, 200, -27.2093, 0
225.5125, 84, 421, 205, -23.72093, 0
225.5314, 92, 421, 209, -20.93023, 0
225.5482, 102, 420, 214, -17.44186, 0
225.5688, 113, 421, 214, -17.44186, 0
225.591, 130, 421, 215, -16.74419, 0
225.6094, 150, 421, 215, -16.74419, 0
225.63, 168, 421, 215, -16.74419, 0
225.6522, 192, 421, 214, -17.44186, 0
225.67, 218, 421, 214, -17.44186, 0
225.6868, 230, 421, 214, -17.44186, 0
225.7056, 243, 421, 214, -17.44186, 0
225.7264, 259, 421, 215, -16.74419, 0
225.7466, 267, 420, 215, -16.74419, 0
225.7674, 263, 421, 214, -17.44186, 0
225.7857, 254, 420, 214, -17.44186, 0
225.805, 235, 420, 214, -17.44186, 0
225.8244, 213, 420, 214, -17.44186, 0
225.8448, 190, 420, 214, -17.44186, 0
225.8652, 168, 420, 214, -17.44186, 0
225.882, 147, 420, 214, -17.44186, 0
225.9034, 129, 421, 214, -17.44186, 0
225.9231, 115, 422, 214, -17.44186, 0
225.9436, 103, 421, 214, -17.44186, 0
225.9637, 91, 421, 214, -17.44186, 0
225.986, 81, 421, 214, -17.44186, 0
226.0055, 76, 422, 214, -17.44186, 0
226.0224, 71, 422, 214, -17.44186, 0
226.0424, 70, 422, 214, -17.44186, 0
226.0634, 69, 422, 214, -17.44186, 0
226.0844, 67, 421, 214, -17.44186, 0
226.1044, 68, 422, 214, -17.44186, 0
226.1225, 71, 422, 214, -17.44186, 0
226.1411, 73, 422, 214, -17.44186, 0
226.1622, 74, 422, 214, -17.44186, 0
226.1822, 75, 422, 214, -17.44186, 0
226.2036, 78, 422, 214, -17.44186, 0
226.2243, 81, 422, 214, -17.44186, 0
226.2409, 82, 423, 214, -17.44186, 0
226.2599, 81, 422, 214, -17.44186, 0
226.28, 81, 423, 214, -17.44186, 0
226.3003, 77, 422, 214, -17.44186, 0
226.321, 75, 422, 214, -17.44186, 0
226.3412, 73, 422, 214, -17.44186, 0
226.3577, 70, 422, 214, -17.44186, 0
226.3782, 64, 422, 214, -17.44186, 0
226.3985, 59, 422, 214, -17.44186, 0
226.42, 54, 422, 214, -17.44186, 0
226.4412, 52, 422, 214, -17.44186, 0
226.4605, 53, 422, 214, -17.44186, 0
226.4769, 56, 422, 214, -17.44186, 0
226.498, 69, 423, 214, -17.44186, 0
226.5176, 89, 422, 214, -17.44186, 0
226.5383, 98, 422, 214, -17.44186, 0
226.5585, 104, 422, 215, -16.74419, 0
226.5781, 109, 422, 214, -17.44186, 0
226.5962, 108, 422, 214, -17.44186, 0
226.6158, 99, 422, 214, -17.44186, 0
226.6366, 91, 422, 214, -17.44186, 0
226.6584, 86, 423, 214, -17.44186, 0
226.6776, 82, 423, 214, -17.44186, 0
226.6973, 77, 423, 214, -17.44186, 0
226.7171, 74, 423, 213, -18.13953, 0
226.7362, 78, 424, 211, -19.53488, 0
226.7553, 82, 424, 210, -20.23256, 0
226.7756, 87, 423, 211, -19.53488, 0
226.7966, 91, 423, 214, -17.44186, 0
226.8168, 94, 422, 213, -18.13953, 0
226.835, 98, 422, 214, -17.44186, 0
226.8546, 102, 422, 214, -17.44186, 0
226.8764, 107, 423, 214, -17.44186, 0
226.8943, 106, 422, 214, -17.44186, 0
226.9151, 104, 422, 214, -17.44186, 0
226.9365, 105, 422, 214, -17.44186, 0
226.952, 105, 422, 213, -18.13953, 0
226.9718, 106, 422, 213, -18.13953, 0
226.9931, 106, 423, 214, -17.44186, 0
227.0128, 102, 423, 214, -17.44186, 0
227.0335, 98, 423, 214, -17.44186, 0
227.0546, 94, 422, 214, -17.44186, 0
227.0709, 89, 422, 213, -18.13953, 0
227.0912, 86, 423, 213, -18.13953, 0
227.1112, 85, 422, 213, -18.13953, 0
227.132, 83, 422, 214, -17.44186, 0
227.1539, 82, 422, 214, -17.44186, 0
227.1741, 80, 422, 214, -17.44186, 0
227.1901, 75, 422, 213, -18.13953, 0
227.2097, 70, 421, 213, -18.13953, 0
227.2303, 69, 422, 214, -17.44186, 0
227.2504, 66, 421, 213, -18.13953, 0
227.2716, 63, 421, 214, -17.44186, 0
227.2883, 58, 421, 213, -18.13953, 0
227.3073, 53, 421, 213, -18.13953, 0
227.3277, 50, 421, 213, -18.13953, 0
227.3481, 50, 420, 213, -18.13953, 0
227.3695, 53, 421, 213, -18.13953, 0
227.3891, 60, 421, 213, -18.13953, 0
227.4055, 68, 422, 213, -18.13953, 0
227.4258, 71, 422, 213, -18.13953, 0
227.4465, 71, 423, 213, -18.13953, 0
227.467, 65, 422, 213, -18.13953, 0
227.4874, 62, 422, 213, -18.13953, 0
227.509, 66, 422, 213, -18.13953, 0
227.5244, 74, 423, 213, -18.13953, 0
227.5447, 80, 423, 213, -18.13953, 0
227.5659, 88, 423, 213, -18.13953, 0
227.5883, 95, 422, 213, -18.13953, 0
227.6068, 105, 423, 213, -18.13953, 0
227.6274, 118, 422, 213, -18.13953, 0
227.6462, 127, 422, 213, -18.13953, 0
227.6654, 138, 422, 213, -18.13953, 0
227.6858, 144, 422, 213, -18.13953, 0
227.706, 153, 422, 213, -18.13953, 0
227.7258, 161, 422, 214, -17.44186, 0
227.7454, 170, 422, 214, -17.44186, 0
227.7619, 180, 422, 213, -18.13953, 0
227.7831, 186, 422, 213, -18.13953, 0
227.804, 187, 422, 214, -17.44186, 0
227.8237, 188, 421, 213, -18.13953, 0
227.844, 187, 421, 214, -17.44186, 0
227.8642, 186, 422, 214, -17.44186, 0
227.8807, 187, 421, 213, -18.13953, 0
227.9018, 187, 421, 214, -17.44186, 0
227.9217, 184, 421, 214, -17.44186, 0
227.9437, 183, 421, 214, -17.44186, 0
227.9654, 180, 421, 214, -17.44186, 0
227.9866, 176, 420, 214, -17.44186, 0
228.0045, 165, 420, 214, -17.44186, 0
228.0205, 156, 420, 214, -17.44186, 0
228.0402, 145, 420, 214, -17.44186, 0
228.0606, 145, 420, 214, -17.44186, 0
228.0813, 152, 420, 214, -17.44186, 0
228.1025, 154, 421, 214, -17.44186, 0
228.1189, 151, 421, 213, -18.13953, 0
228.1385, 141, 421, 213, -18.13953, 0
228.1599, 135, 422, 214, -17.44186, 0
228.1804, 129, 422, 213, -18.13953, 0
228.2, 123, 422, 213, -18.13953, 0
228.2209, 115, 422, 213, -18.13953, 0
228.2383, 102, 422, 213, -18.13953, 0
228.2581, 94, 422, 213, -18.13953, 0
228.2779, 86, 421, 213, -18.13953, 0
228.2982, 85, 421, 213, -18.13953, 0
228.3201, 100, 422, 213, -18.13953, 0
228.3365, 110, 422, 213, -18.13953, 0
228.3561, 116, 422, 213, -18.13953, 0
228.3776, 114, 422, 213, -18.13953, 0
228.3969, 103, 422, 213, -18.13953, 0
228.3969: Grabbed object
228.4176, 92, 422, 213, -18.13953, 0
228.4379, 84, 422, 214, -17.44186, 0
228.4547, 75, 421, 213, -18.13953, 0
228.4747, 66, 421, 214, -17.44186, 0
228.4953, 63, 422, 214, -17.44186, 0
228.5153, 67, 421, 214, -17.44186, 0
228.5373, 84, 422, 214, -17.44186, 0
228.5568, 94, 422, 214, -17.44186, 0
228.574, 102, 421, 214, -17.44186, 0
228.593, 107, 422, 214, -17.44186, 0
228.6145, 116, 422, 213, -18.13953, 0
228.6357, 126, 422, 214, -17.44186, 0
228.6551, 132, 422, 214, -17.44186, 0
228.6754, 144, 423, 214, -17.44186, 0
228.692, 155, 424, 214, -17.44186, 0
228.7124, 148, 425, 213, -18.13953, 0
228.7339, 147, 426, 212, -18.83721, 0
228.7544, 160, 427, 209, -20.93023, 0
228.7756, 180, 429, 203, -25.11628, 0
228.7951, 182, 430, 197, -29.30233, 0
228.8109, 193, 431, 191, -33.48837, 0
228.8308, 200, 431, 188, -35.58139, 0
228.8521, 225, 432, 185, -37.67442, 0
228.8717, 182, 434, 183, -39.06977, 0
228.8928, 187, 435, 176, -43.95349, 0
228.9128, 188, 445, 173, -46.04651, 0
228.929, 186, 446, 167, -50.23256, 0
228.9496, 174, 442, 159, -55.81395, 0
228.9722, 187, 442, 153, -60, 0
228.9904, 203, 446, 151, -61.39535, 0
229.0118, 191, 445, 148, -63.48837, 0
229.0313, 182, 441, 141, -68.37209, 0
229.0483, 201, 441, 138, -70.46512, 0
229.0714, 236, 443, 142, -67.67442, 0
229.0912, 217, 444, 138, -70.46512, 0
229.1115, 190, 444, 134, -73.25581, 0
229.1115: Released object
229.1324, 172, 438, 128, -77.44186, 0
229.1534, 162, 444, 125, -79.53488, 0
229.1693, 196, 442, 119, -83.72093, 0
229.1898, 249, 448, 114, -87.2093, 0
229.2102, 321, 442, 108, -91.39535, 0
229.2328, 418, 444, 104, -94.18604, 0
229.2489, 513, 447, 101, -96.27907, 0
229.2651, 568, 443, 91, -103.2558, 0
229.2868, 608, 438, 94, -101.1628, 0
229.3058, 649, 437, 94, -101.1628, 0
229.3264, 683, 434, 93, -101.8605, 0
229.3467, 691, 432, 96, -99.76744, 0
229.3678, 698, 431, 98, -98.37209, 0
229.3847, 702, 430, 98, -98.37209, 0
229.4063, 706, 429, 98, -98.37209, 0
229.4253, 708, 427, 98, -98.37209, 0
229.4465, 714, 427, 100, -96.97675, 0
229.4662, 718, 427, 102, -95.5814, 0
229.4873, 720, 426, 103, -94.88372, 0
229.504, 720, 425, 102, -95.5814, 0
229.5236, 707, 424, 103, -94.88372, 0
229.5442, 658, 421, 106, -92.7907, 0
229.5642, 612, 421, 107, -92.09303, 0
229.5857, 578, 419, 107, -92.09303, 0
229.6052, 540, 417, 107, -92.09303, 0
229.6218, 510, 416, 107, -92.09303, 0
229.6423, 487, 413, 107, -92.09303, 0
229.6643, 467, 410, 108, -91.39535, 0
229.6838, 455, 407, 108, -91.39535, 0
229.7044, 452, 402, 108, -91.39535, 0
229.724, 447, 398, 113, -87.90697, 180
229.7404, 407, 400, 92, -102.5581, 180
229.7611, 367, 411, 65, -121.3953, 180
229.7822, 355, 420, 64, -122.093, 180
229.8075, 334, 427, 70, -117.907, 180
229.8227, 319, 439, 81, -110.2326, 180
229.8431, 299, 445, 87, -106.0465, 180
229.8606, 274, 447, 94, -101.1628, 180
229.8798, 234, 446, 101, -96.27907, 180
229.9, 190, 441, 115, -86.51163, 180
229.9205, 152, 443, 122, -81.62791, 180
229.9436, 125, 439, 125, -79.53488, 180
229.9592, 106, 442, 125, -79.53488, 180
229.9797, 107, 438, 134, -73.25581, 180
230.0007, 124, 437, 138, -70.46512, 180
230.0215, 164, 437, 142, -67.67442, 180
230.0412, 227, 436, 144, -66.27907, 180
230.0623, 271, 445, 149, -62.7907, 180
230.0801, 303, 437, 152, -60.69767, 180
230.0983, 301, 450, 158, -56.51163, 180
230.1194, 278, 439, 160, -55.11628, 180
230.1402, 243, 439, 166, -50.93023, 180
230.1598, 202, 440, 175, -44.65116, 180
230.1805, 162, 441, 180, -41.16279, 180
230.1983, 136, 442, 184, -38.37209, 180
230.216, 124, 443, 193, -32.09302, 180
230.2375, 113, 444, 198, -28.60465, 180
230.2576, 111, 447, 209, -20.93023, 180
230.2767, 103, 452, 213, -18.13953, 180
230.2981, 102, 446, 218, -14.65116, 180
230.3141, 99, 446, 225, -9.767442, 180
230.3349, 90, 444, 234, -3.488372, 180
230.3546, 84, 443, 239, 0, 180
230.3747, 81, 443, 242, 2.093023, 180
230.3952, 79, 443, 241, 1.395349, 180
230.4157, 79, 442, 241, 1.395349, 180
230.4327, 76, 443, 241, 1.395349, 180
230.4532, 75, 442, 241, 1.395349, 180
230.4736, 73, 442, 241, 1.395349, 180
230.4937, 74, 442, 241, 1.395349, 180
230.515, 75, 443, 241, 1.395349, 180
230.5357, 78, 442, 240, 0.6976744, 180
230.5519, 83, 438, 254, 10.46512, 180
230.5715, 86, 443, 242, 2.093023, 180
230.5921, 92, 442, 241, 1.395349, 180
230.6127, 114, 442, 241, 1.395349, 180
230.6334, 140, 443, 241, 1.395349, 180
230.655, 173, 442, 241, 1.395349, 180
230.6706, 209, 443, 240, 0.6976744, 180
230.6901, 246, 443, 240, 0.6976744, 180
230.7108, 278, 444, 240, 0.6976744, 180
230.7325, 305, 444, 240, 0.6976744, 180
230.7531, 339, 444, 240, 0.6976744, 180
230.7726, 372, 443, 240, 0.6976744, 180
230.7885, 399, 444, 240, 0.6976744, 180
230.8089, 418, 444, 240, 0.6976744, 180
230.8295, 428, 444, 240, 0.6976744, 180
230.8531, 435, 444, 240, 0.6976744, 180
230.8705, 434, 444, 240, 0.6976744, 180
230.8908, 429, 445, 240, 0.6976744, 180
230.9099, 411, 447, 243, 2.790698, 180
230.9306, 396, 449, 243, 2.790698, 180
230.9529, 379, 448, 253, 9.767442, 180
230.9724, 365, 437, 253, 9.767442, 180
230.9924, 347, 436, 252, 9.069767, 180
231.0122, 318, 435, 251, 8.372093, 180
231.0291, 294, 436, 252, 9.069767, 180
231.049, 269, 435, 252, 9.069767, 180
231.0703, 241, 445, 242, 2.093023, 180
231.0902, 215, 444, 239, 0, 180
231.1105, 189, 444, 239, 0, 180
231.1313, 167, 447, 239, 0, 180
231.1501, 151, 447, 240, 0.6976744, 180
231.1684, 140, 439, 253, 9.767442, 180
231.1901, 134, 436, 252, 9.069767, 180
231.2091, 116, 435, 251, 8.372093, 180
231.2303, 110, 436, 251, 8.372093, 180
231.2475, 107, 435, 249, 6.976744, 180
231.2645, 104, 441, 239, 0, 180
231.2855, 104, 443, 240, 0.6976744, 180
231.3059, 108, 443, 240, 0.6976744, 180
231.325, 109, 443, 240, 0.6976744, 180
231.3452, 110, 444, 240, 0.6976744, 180
231.3634, 114, 443, 240, 0.6976744, 180
231.383, 115, 444, 240, 0.6976744, 180
231.4037, 115, 444, 240, 0.6976744, 180
231.4232, 113, 444, 240, 0.6976744, 180
231.4444, 133, 444, 240, 0.6976744, 180
231.4642, 155, 444, 240, 0.6976744, 180
231.4832, 166, 444, 240, 0.6976744, 180
231.502, 173, 444, 240, 0.6976744, 180
231.5216, 192, 445, 240, 0.6976744, 180
231.5421, 213, 444, 240, 0.6976744, 180
231.5645, 237, 444, 240, 0.6976744, 180
231.5882, 254, 444, 240, 0.6976744, 180
231.6038, 261, 444, 240, 0.6976744, 180
231.6248, 258, 444, 240, 0.6976744, 180
231.6426, 251, 444, 241, 1.395349, 180
231.6636, 261, 443, 241, 1.395349, 180
231.6846, 259, 442, 241, 1.395349, 180
231.7045, 245, 438, 241, 1.395349, 180
231.7215, 226, 433, 240, 0.6976744, 180
231.741, 206, 424, 233, -4.186047, 180
231.7616, 184, 418, 213, -18.13953, 180
231.782, 160, 425, 172, -46.74419, 180
231.8053, 132, 460, 172, -46.74419, 0
231.8244, 152, 450, 246, 4.883721, 0
231.8374, 145, 446, 209, -20.93023, 0
231.8582, 132, 447, 196, -30, 0
231.8845, 134, 441, 186, -36.97675, 0
231.8988, 136, 439, 185, -37.67442, 0
231.9203, 138, 444, 186, -36.97675, 0
231.9399, 149, 434, 191, -33.48837, 0
231.9558, 156, 427, 191, -33.48837, 0
231.976, 153, 425, 194, -31.39535, 0
231.9967, 146, 428, 197, -29.30233, 0
232.0187, 142, 421, 201, -26.51163, 0
232.0395, 134, 420, 208, -21.62791, 0
232.06, 119, 419, 214, -17.44186, 0
232.0764, 107, 420, 214, -17.44186, 0
232.0968, 97, 420, 214, -17.44186, 0
232.1175, 87, 420, 214, -17.44186, 0
232.1385, 78, 420, 214, -17.44186, 0
232.1582, 69, 421, 214, -17.44186, 0
232.1786, 63, 420, 214, -17.44186, 0
232.1967, 57, 420, 214, -17.44186, 0
232.2157, 52, 419, 214, -17.44186, 0
232.2397, 50, 419, 214, -17.44186, 0
232.258, 48, 418, 214, -17.44186, 0
232.2753, 59, 416, 214, -17.44186, 0
232.2957, 83, 416, 214, -17.44186, 0
232.3125, 104, 416, 214, -17.44186, 0
232.3334, 120, 415, 214, -17.44186, 0
232.3535, 132, 415, 214, -17.44186, 0
232.3733, 154, 415, 214, -17.44186, 0
232.394, 219, 415, 214, -17.44186, 0
232.4144, 259, 415, 214, -17.44186, 0
232.4344, 280, 415, 213, -18.13953, 0
232.4568, 283, 415, 213, -18.13953, 0
232.4743, 282, 416, 213, -18.13953, 0
232.4948, 280, 417, 214, -17.44186, 0
232.5148, 284, 417, 214, -17.44186, 0
232.5364, 315, 418, 213, -18.13953, 0
232.5536, 331, 418, 213, -18.13953, 0
232.5734, 336, 418, 213, -18.13953, 0
232.5929, 330, 418, 213, -18.13953, 0
232.6134, 320, 419, 213, -18.13953, 0
232.6347, 309, 420, 213, -18.13953, 0
232.6529, 295, 420, 213, -18.13953, 0
232.6717, 279, 420, 213, -18.13953, 0
232.6913, 267, 419, 213, -18.13953, 0
232.7114, 254, 420, 213, -18.13953, 0
232.7329, 239, 420, 213, -18.13953, 0
232.7534, 222, 420, 213, -18.13953, 0
232.7692, 208, 420, 213, -18.13953, 0
232.7896, 198, 420, 213, -18.13953, 0
232.8098, 189, 420, 213, -18.13953, 0
232.8302, 178, 419, 213, -18.13953, 0
232.8514, 169, 419, 213, -18.13953, 0
232.8741, 160, 419, 213, -18.13953, 0
232.8879, 152, 418, 213, -18.13953, 0
232.9082, 141, 418, 213, -18.13953, 0
232.9266, 125, 417, 213, -18.13953, 0
232.9473, 110, 416, 213, -18.13953, 0
232.9716, 94, 416, 213, -18.13953, 0
232.9902, 81, 416, 213, -18.13953, 0
233.0063, 71, 416, 213, -18.13953, 0
233.0267, 63, 416, 213, -18.13953, 0
233.0476, 57, 416, 213, -18.13953, 0
233.0685, 53, 417, 213, -18.13953, 0
233.0908, 51, 418, 213, -18.13953, 0
233.1092, 50, 418, 213, -18.13953, 0
233.1265, 51, 418, 213, -18.13953, 0
233.1458, 53, 419, 213, -18.13953, 0
233.1665, 54, 419, 213, -18.13953, 0
233.1876, 54, 419, 213, -18.13953, 0
233.2053, 57, 419, 213, -18.13953, 0
233.2253, 62, 419, 213, -18.13953, 0
233.2437, 67, 419, 213, -18.13953, 0
233.2633, 72, 419, 213, -18.13953, 0
233.2837, 76, 420, 213, -18.13953, 0
233.3046, 78, 420, 213, -18.13953, 0
233.3236, 82, 420, 213, -18.13953, 0
233.3443, 86, 420, 213, -18.13953, 0
233.3604, 89, 420, 213, -18.13953, 0
233.3811, 89, 421, 213, -18.13953, 0
233.3811: Grabbed object
233.4026, 88, 421, 213, -18.13953, 0
233.422, 90, 422, 213, -18.13953, 0
233.4423, 105, 422, 213, -18.13953, 0
233.4627, 119, 423, 213, -18.13953, 0
233.4789, 111, 424, 213, -18.13953, 0
233.4995, 141, 425, 212, -18.83721, 0
233.5215, 183, 426, 212, -18.83721, 0
233.5422, 161, 427, 210, -20.23256, 0
233.5639, 209, 429, 205, -23.72093, 0
233.5846, 237, 431, 199, -27.90698, 0
233.6012, 240, 433, 192, -32.7907, 0
233.6218, 251, 435, 187, -36.27907, 0
233.6411, 288, 437, 177, -43.25581, 0
233.6615, 316, 439, 171, -47.44186, 0
233.6837, 321, 444, 171, -47.44186, 0
233.7012, 329, 443, 159, -55.81395, 0
233.7192, 310, 443, 157, -57.2093, 0
233.7379, 264, 446, 148, -63.48837, 0
233.7583, 223, 443, 147, -64.18604, 0
233.7789, 211, 443, 141, -68.37209, 0
233.7993, 185, 443, 138, -70.46512, 0
233.8162, 154, 445, 128, -77.44186, 0
233.8162: Released object
233.8373, 126, 443, 130, -76.04651, 0
233.8576, 135, 440, 130, -76.04651, 0
233.877, 138, 439, 127, -78.13953, 0
233.8975, 205, 442, 120, -83.02325, 0
233.919, 284, 441, 118, -84.4186, 0
233.9363, 364, 441, 116, -85.81396, 0
233.9546, 450, 442, 110, -90, 0
233.9752, 538, 440, 107, -92.09303, 0
233.9952, 637, 443, 102, -95.5814, 0
234.0158, 672, 438, 102, -95.5814, 0
234.0369, 668, 446, 100, -96.97675, 0
234.0537, 676, 441, 100, -96.97675, 0
234.0735, 685, 435, 98, -98.37209, 0
234.0937, 682, 440, 99, -97.67442, 0
234.1141, 693, 430, 98, -98.37209, 0
234.1361, 695, 437, 101, -96.27907, 0
234.1566, 704, 428, 101, -96.27907, 0
234.1728, 705, 429, 95, -100.4651, 0
234.1933, 712, 428, 103, -94.88372, 0
234.2141, 712, 428, 102, -95.5814, 0
234.2334, 714, 427, 102, -95.5814, 0
234.2541, 709, 435, 104, -94.18604, 0
234.2748, 721, 426, 105, -93.48837, 0
234.2903, 722, 426, 105, -93.48837, 0
234.3118, 723, 426, 105, -93.48837, 0
234.3312, 716, 431, 104, -94.18604, 0
234.3535, 721, 424, 103, -94.88372, 0
234.3739, 720, 425, 103, -94.88372, 0
234.3932, 721, 424, 103, -94.88372, 0
234.4091, 725, 422, 105, -93.48837, 0
234.4296, 728, 420, 106, -92.7907, 0
234.45, 727, 418, 107, -92.09303, 0
234.4706, 699, 415, 107, -92.09303, 0
234.491, 663, 411, 108, -91.39535, 0
234.5075, 640, 407, 108, -91.39535, 0
234.5278, 609, 402, 111, -89.30232, 0
234.5483, 585, 399, 114, -87.2093, 180
234.5697, 510, 403, 87, -106.0465, 180
234.5901, 443, 419, 65, -121.3953, 180
234.6099, 396, 433, 68, -119.3023, 180
234.6263, 346, 440, 74, -115.1163, 180
234.6466, 290, 443, 78, -112.3256, 180
234.6671, 247, 451, 92, -102.5581, 180
234.6877, 206, 447, 103, -94.88372, 180
234.7082, 169, 446, 115, -86.51163, 180
234.7286, 156, 444, 122, -81.62791, 180
234.7449, 163, 443, 129, -76.74419, 180
234.7656, 185, 446, 132, -74.65116, 180
234.7876, 226, 439, 131, -75.34884, 180
234.8074, 276, 439, 131, -75.34884, 180
234.8269, 350, 437, 131, -75.34884, 180
234.8473, 426, 451, 132, -74.65116, 180
234.8636, 521, 446, 134, -73.25581, 180
234.8851, 622, 435, 136, -71.86047, 180
234.905, 658, 435, 135, -72.55814, 180
234.9253, 657, 436, 139, -69.76744, 180
234.9492, 651, 441, 139, -69.76744, 180
234.9707, 652, 437, 150, -62.09302, 180
234.9866, 656, 439, 150, -62.09302, 180
235.0042, 659, 439, 160, -55.11628, 180
235.0251, 658, 439, 164, -52.32558, 180
235.0446, 664, 439, 167, -50.23256, 180
235.0648, 670, 439, 177, -43.25581, 180
235.0863, 671, 436, 180, -41.16279, 180
235.1032, 675, 435, 186, -36.97675, 180
235.1226, 680, 429, 182, -39.76744, 180
235.1434, 668, 439, 167, -50.23256, 180
235.1636, 639, 454, 169, -48.83721, 180
235.1837, 638, 455, 170, -48.13953, 180
235.2048, 638, 457, 172, -46.74419, 0
235.2225, 727, 431, 252, 9.069767, 0
235.2421, 694, 444, 215, -16.74419, 0
235.2616, 674, 447, 199, -27.90698, 0
235.2816, 661, 452, 194, -31.39535, 0
235.3032, 669, 440, 191, -33.48837, 0
235.3226, 670, 438, 189, -34.88372, 0
235.3394, 683, 430, 191, -33.48837, 0
235.3597, 686, 434, 197, -29.30233, 0
235.3802, 698, 426, 200, -27.2093, 0
235.4008, 657, 423, 202, -25.81395, 0
235.4218, 608, 423, 206, -23.02326, 0
235.4391, 549, 422, 208, -21.62791, 0
235.4581, 495, 420, 210, -20.23256, 0
235.4785, 449, 420, 213, -18.13953, 0
235.4993, 411, 420, 215, -16.74419, 0
235.5211, 381, 420, 216, -16.04651, 0
235.5413, 346, 421, 216, -16.04651, 0
235.5585, 307, 421, 215, -16.74419, 0
235.5777, 267, 421, 215, -16.74419, 0
235.5967, 237, 421, 215, -16.74419, 0
235.6175, 219, 420, 215, -16.74419, 0
235.6378, 206, 421, 215, -16.74419, 0
235.6591, 194, 421, 216, -16.04651, 0
235.6756, 192, 421, 215, -16.74419, 0
235.6961, 195, 421, 215, -16.74419, 0
235.7172, 200, 421, 215, -16.74419, 0
235.7377, 211, 421, 215, -16.74419, 0
235.7574, 229, 421, 215, -16.74419, 0
235.7779, 244, 420, 215, -16.74419, 0
235.7945, 247, 421, 215, -16.74419, 0
235.8148, 254, 421, 215, -16.74419, 0
235.8358, 267, 422, 215, -16.74419, 0
235.8561, 283, 421, 215, -16.74419, 0
235.8774, 288, 422, 215, -16.74419, 0
235.8965, 286, 422, 214, -17.44186, 0
235.9135, 291, 421, 214, -17.44186, 0
235.9344, 295, 421, 213, -18.13953, 0
235.9546, 301, 421, 214, -17.44186, 0
235.9745, 304, 422, 215, -16.74419, 0
235.9962, 303, 421, 215, -16.74419, 0
236.0206, 302, 421, 215, -16.74419, 0
236.0341, 285, 422, 214, -17.44186, 0
236.0538, 259, 422, 214, -17.44186, 0
236.0723, 248, 422, 214, -17.44186, 0
236.0932, 245, 422, 215, -16.74419, 0
236.114, 241, 422, 214, -17.44186, 0
236.1349, 243, 422, 214, -17.44186, 0
236.1513, 244, 421, 214, -17.44186, 0
236.1715, 242, 422, 214, -17.44186, 0
236.1916, 246, 422, 214, -17.44186, 0
236.2128, 252, 422, 214, -17.44186, 0
236.2332, 264, 422, 214, -17.44186, 0
236.2553, 279, 422, 214, -17.44186, 0
236.2695, 285, 422, 214, -17.44186, 0
236.2889, 285, 423, 214, -17.44186, 0
236.3102, 290, 422, 214, -17.44186, 0
236.3316, 297, 422, 214, -17.44186, 0
236.3528, 292, 423, 214, -17.44186, 0
236.3739, 284, 422, 214, -17.44186, 0
236.3891, 273, 423, 214, -17.44186, 0
236.4094, 259, 423, 214, -17.44186, 0
236.43, 245, 422, 212, -18.83721, 0
236.4514, 233, 422, 213, -18.13953, 0
236.4721, 205, 422, 214, -17.44186, 0
236.4896, 189, 422, 214, -17.44186, 0
236.5087, 174, 422, 214, -17.44186, 0
236.5285, 159, 422, 214, -17.44186, 0
236.5492, 182, 422, 214, -17.44186, 0
236.5701, 190, 422, 214, -17.44186, 0
236.5901, 187, 422, 214, -17.44186, 0
236.6087, 189, 422, 214, -17.44186, 0
236.626, 183, 422, 214, -17.44186, 0
236.6455, 173, 422, 214, -17.44186, 0
236.6663, 157, 422, 214, -17.44186, 0
236.6874, 137, 421, 214, -17.44186, 0
236.7066, 125, 422, 214, -17.44186, 0
236.7281, 109, 421, 214, -17.44186, 0
236.7439, 93, 422, 214, -17.44186, 0
236.7641, 85, 422, 214, -17.44186, 0
236.7875, 76, 422, 214, -17.44186, 0
236.8072, 77, 422, 214, -17.44186, 0
236.8279, 76, 421, 214, -17.44186, 0
236.8481, 75, 421, 214, -17.44186, 0
236.8647, 81, 421, 214, -17.44186, 0
236.8858, 86, 421, 214, -17.44186, 0
236.9061, 90, 421, 214, -17.44186, 0
236.9261, 91, 421, 214, -17.44186, 0
236.9478, 94, 422, 214, -17.44186, 0
236.9642, 96, 422, 214, -17.44186, 0
236.9845, 104, 422, 214, -17.44186, 0
237.0047, 129, 422, 214, -17.44186, 0
237.0248, 149, 422, 214, -17.44186, 0
237.0445, 162, 422, 214, -17.44186, 0
237.0635, 183, 422, 214, -17.44186, 0
237.08, 187, 422, 213, -18.13953, 0
237.101, 185, 422, 213, -18.13953, 0
237.1214, 194, 423, 213, -18.13953, 0
237.1435, 193, 422, 214, -17.44186, 0
237.1658, 193, 422, 214, -17.44186, 0
237.1867, 187, 422, 214, -17.44186, 0
237.2026, 184, 423, 214, -17.44186, 0
237.2225, 178, 422, 214, -17.44186, 0
237.2396, 182, 422, 214, -17.44186, 0
237.2594, 187, 422, 214, -17.44186, 0
237.2802, 190, 421, 214, -17.44186, 0
237.3004, 192, 421, 214, -17.44186, 0
237.3176, 223, 421, 213, -18.13953, 0
237.3372, 267, 422, 214, -17.44186, 0
237.3582, 308, 421, 214, -17.44186, 0
237.3799, 342, 421, 214, -17.44186, 0
237.3986, 372, 421, 213, -18.13953, 0
237.4202, 393, 420, 214, -17.44186, 0
237.4385, 411, 420, 213, -18.13953, 0
237.4584, 419, 421, 213, -18.13953, 0
237.4793, 427, 422, 213, -18.13953, 0
237.4992, 431, 422, 214, -17.44186, 0
237.5203, 439, 422, 214, -17.44186, 0
237.5382, 448, 422, 214, -17.44186, 0
237.5548, 445, 423, 213, -18.13953, 0
237.5752, 437, 423, 213, -18.13953, 0
237.5966, 435, 423, 214, -17.44186, 0
237.6159, 440, 423, 213, -18.13953, 0
237.637, 448, 423, 214, -17.44186, 0
237.6569, 441, 422, 214, -17.44186, 0
237.6733, 431, 422, 214, -17.44186, 0
237.6936, 403, 422, 213, -18.13953, 0
237.7143, 383, 422, 213, -18.13953, 0
237.7353, 362, 422, 213, -18.13953, 0
237.7551, 345, 422, 213, -18.13953, 0
237.7782, 335, 422, 213, -18.13953, 0
237.7971, 320, 423, 213, -18.13953, 0
237.8149, 313, 423, 213, -18.13953, 0
237.8367, 295, 423, 212, -18.83721, 0
237.8568, 281, 422, 212, -18.83721, 0
237.8765, 244, 422, 213, -18.13953, 0
237.8968, 204, 428, 226, -9.069767, 0
237.9153, 175, 420, 213, -18.13953, 0
237.9353, 157, 420, 213, -18.13953, 0
237.9557, 141, 419, 214, -17.44186, 0
237.9746, 124, 419, 214, -17.44186, 0
237.9949, 105, 420, 213, -18.13953, 0
238.0185, 90, 419, 214, -17.44186, 0
238.0346, 76, 420, 213, -18.13953, 0
238.0536, 67, 421, 213, -18.13953, 0
238.0714, 59, 420, 214, -17.44186, 0
238.091, 59, 421, 213, -18.13953, 0
238.113, 73, 422, 213, -18.13953, 0
238.1279, 76, 423, 212, -18.83721, 0
238.1484, 82, 423, 211, -19.53488, 0
238.1697, 84, 423, 211, -19.53488, 0
238.1931, 82, 423, 212, -18.83721, 0
238.2129, 81, 423, 212, -18.83721, 0
238.236, 80, 424, 211, -19.53488, 0
238.2544, 84, 424, 212, -18.83721, 0
238.2721, 80, 423, 212, -18.83721, 0
238.288, 80, 423, 213, -18.13953, 0
238.3081, 74, 423, 213, -18.13953, 0
238.3293, 72, 423, 213, -18.13953, 0
238.3489, 71, 424, 212, -18.83721, 0
238.3663, 68, 424, 212, -18.83721, 0
238.3868, 64, 425, 212, -18.83721, 0
238.3868: Grabbed object
238.4066, 61, 425, 211, -19.53488, 0
238.4271, 59, 425, 209, -20.93023, 0
238.4482, 54, 424, 207, -22.32558, 0
238.4689, 49, 423, 208, -21.62791, 0
238.4852, 47, 423, 207, -22.32558, 0
238.5049, 45, 421, 207, -22.32558, 0
238.5249, 44, 422, 208, -21.62791, 0
238.5459, 46, 421, 210, -20.23256, 0
238.5663, 43, 422, 208, -21.62791, 0
238.587, 49, 422, 208, -21.62791, 0
238.6036, 66, 422, 208, -21.62791, 0
238.6234, 78, 424, 206, -23.02326, 0
238.6442, 80, 423, 204, -24.4186, 0
238.6686, 77, 426, 203, -25.11628, 0
238.6895, 85, 427, 201, -26.51163, 0
238.7084, 102, 429, 198, -28.60465, 0
238.7248, 115, 430, 192, -32.7907, 0
238.7452, 123, 430, 188, -35.58139, 0
238.7662, 123, 432, 184, -38.37209, 0
238.7869, 128, 432, 181, -40.46511, 0
238.8073, 118, 441, 178, -42.55814, 0
238.8271, 111, 435, 174, -45.34884, 0
238.8444, 93, 437, 170, -48.13953, 0
238.8643, 91, 438, 164, -52.32558, 0
238.8868, 113, 439, 157, -57.2093, 0
238.9063, 151, 439, 154, -59.30233, 0
238.9252, 154, 441, 146, -64.88372, 0
238.9457, 146, 441, 146, -64.88372, 0
238.9626, 170, 441, 141, -68.37209, 0
238.9838, 151, 442, 136, -71.86047, 0
239.0043, 166, 446, 127, -78.13953, 0
239.0043: Released object
239.0246, 209, 442, 126, -78.83721, 0
239.0444, 334, 443, 123, -80.93023, 0
239.0656, 410, 443, 120, -83.02325, 0
239.0854, 497, 445, 118, -84.4186, 0
239.1034, 598, 445, 109, -90.69768, 0
239.1206, 672, 441, 108, -91.39535, 0
239.1399, 669, 442, 105, -93.48837, 0
239.16, 668, 446, 96, -99.76744, 0
239.1767, 671, 443, 96, -99.76744, 0
239.1971, 672, 443, 93, -101.8605, 0
239.218, 671, 445, 94, -101.1628, 0
239.2382, 669, 446, 84, -108.1395, 0
239.2585, 676, 442, 90, -103.9535, 0
239.2793, 680, 435, 90, -103.9535, 0
239.2961, 689, 434, 87, -106.0465, 0
239.3158, 694, 432, 90, -103.9535, 0
239.3371, 698, 431, 90, -103.9535, 0
239.3567, 705, 429, 92, -102.5581, 0
239.3773, 705, 428, 96, -99.76744, 0
239.3976, 719, 428, 97, -99.06977, 0
239.4141, 721, 427, 98, -98.37209, 0
239.4355, 722, 429, 98, -98.37209, 0
239.4549, 718, 432, 99, -97.67442, 0
239.4775, 725, 427, 100, -96.97675, 0
239.4984, 726, 425, 100, -96.97675, 0
239.5215, 728, 424, 101, -96.27907, 0
239.5371, 727, 423, 101, -96.27907, 0
239.5569, 727, 422, 101, -96.27907, 0
239.5763, 726, 420, 101, -96.27907, 0
239.5967, 726, 417, 101, -96.27907, 0
239.6179, 726, 414, 101, -96.27907, 0
239.6368, 726, 410, 101, -96.27907, 0
239.6563, 725, 407, 102, -95.5814, 0
239.6734, 727, 403, 101, -96.27907, 0
239.6938, 738, 396, 110, -90, 180
239.7144, 684, 404, 81, -110.2326, 180
239.7362, 641, 419, 62, -123.4884, 180
239.7549, 634, 430, 66, -120.6977, 180
239.7719, 636, 436, 70, -117.907, 180
239.7923, 638, 442, 77, -113.0233, 180
239.8126, 643, 445, 83, -108.8372, 180
239.8337, 623, 445, 91, -103.2558, 180
239.8545, 574, 447, 96, -99.76744, 180
239.8704, 514, 443, 113, -87.90697, 180
239.8901, 458, 442, 118, -84.4186, 180
239.9104, 401, 442, 120, -83.02325, 180
239.9311, 360, 442, 123, -80.93023, 180
239.9541, 309, 438, 124, -80.23256, 180
239.9719, 256, 436, 126, -78.83721, 180
239.9882, 205, 437, 132, -74.65116, 180
240.0086, 171, 441, 138, -70.46512, 180
240.0292, 175, 437, 140, -69.06977, 180
240.0495, 190, 436, 143, -66.97675, 180
240.071, 207, 436, 147, -64.18604, 180
240.0905, 233, 437, 150, -62.09302, 180
240.107, 254, 438, 156, -57.90698, 180
240.1273, 285, 438, 161, -54.41861, 180
240.1483, 320, 439, 162, -53.72093, 180
240.1696, 416, 436, 169, -48.83721, 180
240.1885, 474, 433, 172, -46.74419, 180
240.2093, 466, 439, 159, -55.81395, 180
240.2282, 445, 451, 162, -53.72093, 180
240.2466, 402, 453, 164, -52.32558, 180
240.266, 355, 454, 166, -50.93023, 180
240.2873, 302, 456, 169, -48.83721, 0
240.3097, 302, 422, 263, 16.74419, 0
240.3277, 248, 442, 220, -13.25581, 0
240.3451, 219, 442, 203, -25.11628, 0
240.3642, 198, 440, 195, -30.69767, 0
240.3864, 178, 438, 192, -32.7907, 0
240.405, 155, 435, 187, -36.27907, 0
240.4257, 139, 429, 194, -31.39535, 0
240.4464, 123, 427, 194, -31.39535, 0
240.4629, 111, 433, 203, -25.11628, 0
240.4841, 107, 423, 205, -23.72093, 0
240.5041, 106, 422, 209, -20.93023, 0
240.524, 106, 421, 212, -18.83721, 0
240.5443, 108, 421, 213, -18.13953, 0
240.5673, 115, 421, 213, -18.13953, 0
240.5867, 125, 422, 213, -18.13953, 0
240.6053, 143, 421, 213, -18.13953, 0
240.6249, 165, 422, 212, -18.83721, 0
240.6449, 190, 422, 213, -18.13953, 0
240.6661, 214, 421, 213, -18.13953, 0
240.6851, 237, 421, 213, -18.13953, 0
240.7012, 253, 421, 214, -17.44186, 0
240.7208, 263, 422, 213, -18.13953, 0
240.7413, 267, 426, 225, -9.767442, 0
240.7623, 275, 421, 214, -17.44186, 0
240.7817, 273, 421, 215, -16.74419, 0
240.8045, 269, 421, 214, -17.44186, 0
240.8201, 266, 421, 214, -17.44186, 0
240.8393, 263, 422, 214, -17.44186, 0
240.86, 262, 421, 214, -17.44186, 0
240.8801, 254, 421, 214, -17.44186, 0
240.9038, 244, 421, 214, -17.44186, 0
240.9203, 228, 422, 214, -17.44186, 0
240.9398, 211, 422, 214, -17.44186, 0
240.9606, 193, 422, 214, -17.44186, 0
240.9808, 178, 422, 214, -17.44186, 0
241.0014, 165, 422, 214, -17.44186, 0
241.0243, 153, 422, 214, -17.44186, 0
241.0399, 144, 422, 213, -18.13953, 0
241.0587, 133, 423, 213, -18.13953, 0
241.0789, 124, 422, 213, -18.13953, 0
241.0996, 117, 423, 214, -17.44186, 0
241.1206, 111, 422, 214, -17.44186, 0
241.1404, 121, 423, 214, -17.44186, 0
241.1571, 134, 422, 213, -18.13953, 0
241.1775, 143, 423, 213, -18.13953, 0
241.197, 150, 423, 213, -18.13953, 0
241.217, 156, 422, 214, -17.44186, 0
241.2401, 158, 423, 214, -17.44186, 0
241.2583, 159, 423, 214, -17.44186, 0
241.2746, 159, 423, 213, -18.13953, 0
241.2939, 161, 423, 213, -18.13953, 0
241.3144, 163, 423, 213, -18.13953, 0
241.3362, 168, 423, 213, -18.13953, 0
241.3554, 174, 423, 213, -18.13953, 0
241.3758, 182, 423, 213, -18.13953, 0
241.3926, 196, 423, 213, -18.13953, 0
241.4132, 214, 423, 213, -18.13953, 0
241.4338, 233, 423, 213, -18.13953, 0
241.4551, 261, 424, 213, -18.13953, 0
241.4745, 282, 423, 213, -18.13953, 0
241.4949, 299, 423, 213, -18.13953, 0
241.511, 315, 431, 226, -9.069767, 0
241.5314, 325, 423, 211, -19.53488, 0
241.5534, 335, 423, 212, -18.83721, 0
241.5729, 344, 423, 211, -19.53488, 0
241.5934, 351, 423, 211, -19.53488, 0
241.6143, 357, 423, 213, -18.13953, 0
241.631, 357, 423, 213, -18.13953, 0
241.6506, 350, 423, 213, -18.13953, 0
241.6718, 341, 423, 213, -18.13953, 0
241.6915, 326, 424, 213, -18.13953, 0
241.7163, 313, 426, 211, -19.53488, 0
241.7338, 306, 423, 212, -18.83721, 0
241.7493, 301, 423, 212, -18.83721, 0
241.7704, 293, 424, 213, -18.13953, 0
241.7899, 280, 423, 213, -18.13953, 0
241.8106, 271, 423, 213, -18.13953, 0
241.831, 264, 423, 213, -18.13953, 0
241.852, 257, 423, 213, -18.13953, 0
241.8696, 251, 423, 213, -18.13953, 0
241.8881, 245, 423, 213, -18.13953, 0
241.9125, 236, 424, 213, -18.13953, 0
241.9312, 226, 424, 213, -18.13953, 0
241.9526, 220, 423, 213, -18.13953, 0
241.9733, 216, 423, 213, -18.13953, 0
241.9891, 214, 423, 213, -18.13953, 0
242.0088, 211, 423, 213, -18.13953, 0
242.0296, 208, 423, 213, -18.13953, 0
242.0518, 202, 423, 213, -18.13953, 0
242.0713, 198, 423, 213, -18.13953, 0
242.0895, 192, 423, 213, -18.13953, 0
242.1075, 186, 423, 213, -18.13953, 0
242.1279, 175, 423, 213, -18.13953, 0
242.1484, 163, 424, 213, -18.13953, 0
242.1694, 161, 423, 213, -18.13953, 0
242.1911, 162, 423, 213, -18.13953, 0
242.2047, 163, 424, 213, -18.13953, 0
242.2251, 167, 424, 212, -18.83721, 0
242.245, 173, 424, 213, -18.13953, 0
242.265, 182, 424, 213, -18.13953, 0
242.2864, 193, 424, 212, -18.83721, 0
242.3072, 192, 424, 213, -18.13953, 0
242.3225, 193, 425, 212, -18.83721, 0
242.3431, 194, 432, 216, -16.04651, 0
242.3632, 189, 426, 208, -21.62791, 0
242.3837, 183, 425, 206, -23.02326, 0
242.404, 174, 425, 206, -23.02326, 0
242.4265, 171, 425, 204, -24.4186, 0
242.4431, 187, 425, 202, -25.81395, 0
242.4638, 192, 422, 198, -28.60465, 0
242.4854, 198, 423, 201, -26.51163, 0
242.5049, 205, 423, 197, -29.30233, 0
242.5265, 218, 421, 205, -23.72093, 0
242.5457, 234, 422, 206, -23.02326, 0
242.5628, 244, 422, 205, -23.72093, 0
242.5821, 254, 422, 205, -23.72093, 0
242.6032, 267, 422, 205, -23.72093, 0
242.624, 283, 422, 204, -24.4186, 0
242.6438, 296, 422, 204, -24.4186, 0
242.6642, 305, 422, 203, -25.11628, 0
242.6809, 313, 421, 203, -25.11628, 0
242.7019, 320, 421, 203, -25.11628, 0
242.7225, 327, 422, 204, -24.4186, 0
242.7439, 330, 422, 204, -24.4186, 0
242.7637, 332, 421, 204, -24.4186, 0
242.7808, 334, 421, 204, -24.4186, 0
242.7979, 337, 421, 204, -24.4186, 0
242.8178, 342, 421, 205, -23.72093, 0
242.838, 343, 421, 204, -24.4186, 0
242.8584, 342, 422, 203, -25.11628, 0
242.8788, 337, 421, 204, -24.4186, 0
242.8996, 333, 421, 204, -24.4186, 0
242.9159, 319, 421, 205, -23.72093, 0
242.937, 310, 422, 205, -23.72093, 0
242.9576, 301, 422, 205, -23.72093, 0
242.9772, 295, 422, 205, -23.72093, 0
242.9976, 284, 421, 205, -23.72093, 0
243.0188, 274, 422, 205, -23.72093, 0
243.0353, 269, 422, 205, -23.72093, 0
243.0551, 265, 422, 205, -23.72093, 0
243.0773, 261, 423, 205, -23.72093, 0
243.0977, 257, 422, 204, -24.4186, 0
243.1186, 261, 422, 204, -24.4186, 0
243.1393, 261, 422, 203, -25.11628, 0
243.1573, 258, 422, 204, -24.4186, 0
243.1759, 254, 421, 203, -25.11628, 0
243.1966, 253, 422, 203, -25.11628, 0
243.2174, 250, 421, 203, -25.11628, 0
243.2386, 242, 421, 203, -25.11628, 0
243.2576, 236, 420, 204, -24.4186, 0
243.2738, 238, 421, 204, -24.4186, 0
243.2929, 234, 421, 204, -24.4186, 0
243.3142, 231, 420, 204, -24.4186, 0
243.3342, 234, 420, 204, -24.4186, 0
243.3542, 237, 418, 204, -24.4186, 0
243.3753, 236, 418, 204, -24.4186, 0
243.3908, 231, 419, 204, -24.4186, 0
243.3908: Grabbed object
243.4115, 228, 417, 204, -24.4186, 0
243.4317, 221, 417, 204, -24.4186, 0
243.453, 217, 416, 204, -24.4186, 0
243.4727, 206, 416, 204, -24.4186, 0
243.4893, 192, 416, 204, -24.4186, 0
243.5094, 181, 415, 204, -24.4186, 0
243.5299, 164, 415, 204, -24.4186, 0
243.5504, 147, 415, 204, -24.4186, 0
243.5709, 132, 414, 204, -24.4186, 0
243.5925, 120, 415, 204, -24.4186, 0
243.6082, 117, 415, 204, -24.4186, 0
243.6285, 108, 416, 204, -24.4186, 0
243.6488, 93, 417, 204, -24.4186, 0
243.67, 132, 418, 205, -23.72093, 0
243.6899, 107, 419, 204, -24.4186, 0
243.7106, 97, 421, 204, -24.4186, 0
243.7265, 109, 422, 204, -24.4186, 0
243.7469, 107, 422, 202, -25.81395, 0
243.7686, 116, 428, 197, -29.30233, 0
243.7882, 130, 429, 192, -32.7907, 0
243.8095, 119, 430, 186, -36.97675, 0
243.8314, 140, 433, 183, -39.06977, 0
243.8481, 143, 435, 176, -43.95349, 0
243.8686, 121, 438, 169, -48.83721, 0
243.8895, 109, 441, 165, -51.62791, 0
243.9091, 101, 443, 157, -57.2093, 0
243.9297, 106, 443, 149, -62.7907, 0
243.9503, 106, 448, 147, -64.18604, 0
243.9683, 109, 446, 144, -66.27907, 0
243.9881, 101, 445, 135, -72.55814, 0
243.9881: Released object
244.008, 97, 440, 136, -71.86047, 0
244.0297, 85, 439, 136, -71.86047, 0
244.0479, 95, 441, 133, -73.95349, 0
244.0694, 94, 439, 128, -77.44186, 0
244.0869, 96, 439, 126, -78.83721, 0
244.1067, 117, 443, 124, -80.23256, 0
244.1268, 144, 446, 118, -84.4186, 0
244.1465, 205, 441, 113, -87.90697, 0
244.1672, 248, 440, 110, -90, 0
244.1891, 321, 439, 106, -92.7907, 0
244.2051, 415, 440, 102, -95.5814, 0
244.2246, 510, 443, 103, -94.88372, 0
244.2473, 595, 439, 97, -99.06977, 0
244.2666, 678, 438, 94, -101.1628, 0
244.2846, 682, 437, 94, -101.1628, 0
244.3046, 686, 436, 93, -101.8605, 0
244.321, 690, 435, 94, -101.1628, 0
244.3411, 692, 434, 93, -101.8605, 0
244.3616, 696, 433, 93, -101.8605, 0
244.382, 700, 432, 93, -101.8605, 0
244.4034, 700, 432, 87, -106.0465, 0
244.42, 703, 431, 93, -101.8605, 0
244.4395, 711, 429, 96, -99.76744, 0
244.4643, 717, 428, 99, -97.67442, 0
244.4834, 721, 427, 101, -96.27907, 0
244.5049, 723, 426, 102, -95.5814, 0
244.5246, 725, 424, 103, -94.88372, 0
244.5403, 724, 422, 103, -94.88372, 0
244.5607, 724, 420, 103, -94.88372, 0
244.5814, 724, 416, 103, -94.88372, 0
244.6046, 725, 413, 104, -94.18604, 0
244.6231, 725, 409, 104, -94.18604, 0
244.6431, 729, 404, 107, -92.09303, 0
244.6609, 722, 411, 112, -88.60465, 0
244.68, 745, 397, 118, -84.4186, 180
244.7, 673, 405, 79, -111.6279, 180
244.7215, 640, 420, 63, -122.7907, 180
244.7411, 638, 433, 66, -120.6977, 180
244.7615, 639, 437, 73, -115.814, 180
244.7786, 636, 443, 81, -110.2326, 180
244.7989, 642, 446, 87, -106.0465, 180
244.8179, 651, 446, 95, -100.4651, 180
244.8379, 660, 445, 110, -90, 180
244.8581, 659, 443, 117, -85.11628, 180
244.8838, 584, 443, 122, -81.62791, 180
244.8987, 500, 444, 127, -78.13953, 180
244.9192, 414, 444, 130, -76.04651, 180
244.9385, 326, 439, 131, -75.34884, 180
244.9582, 267, 438, 132, -74.65116, 180
244.9784, 250, 438, 138, -70.46512, 180
244.999, 247, 437, 141, -68.37209, 180
245.0159, 250, 437, 140, -69.06977, 180
245.0372, 270, 437, 149, -62.7907, 180
245.0567, 307, 438, 150, -62.09302, 180
245.0771, 387, 437, 155, -58.60465, 180
245.0991, 445, 439, 160, -55.11628, 180
245.1178, 471, 447, 163, -53.02325, 180
245.1358, 481, 446, 170, -48.13953, 180
245.1553, 498, 440, 175, -44.65116, 180
245.1749, 504, 444, 182, -39.76744, 180
245.1959, 492, 442, 189, -34.88372, 180
245.2173, 464, 439, 197, -29.30233, 180
245.235, 438, 436, 204, -24.4186, 180
245.2516, 402, 430, 204, -24.4186, 180
245.2715, 373, 426, 187, -36.27907, 180
245.2913, 346, 445, 171, -47.44186, 180
245.3132, 316, 458, 172, -46.74419, 0
245.333, 349, 442, 241, 1.395349, 0
245.3495, 313, 445, 210, -20.23256, 0
245.3702, 288, 446, 194, -31.39535, 0
245.3897, 272, 444, 181, -40.46511, 0
245.4102, 252, 440, 184, -38.37209, 0
245.4307, 225, 433, 184, -38.37209, 0
245.4521, 199, 435, 192, -32.7907, 0
245.4677, 178, 434, 196, -30, 0
245.4879, 161, 426, 198, -28.60465, 0
245.5085, 148, 424, 201, -26.51163, 0
245.53, 140, 423, 204, -24.4186, 0
245.5499, 140, 422, 207, -22.32558, 0
245.5724, 144, 420, 209, -20.93023, 0
245.588, 148, 421, 215, -16.74419, 0
245.6085, 155, 421, 215, -16.74419, 0
245.6313, 167, 421, 215, -16.74419, 0
245.6493, 179, 421, 215, -16.74419, 0
245.6708, 191, 422, 215, -16.74419, 0
245.6912, 200, 422, 214, -17.44186, 0
245.7076, 212, 422, 214, -17.44186, 0
245.7273, 222, 423, 215, -16.74419, 0
245.7492, 231, 423, 214, -17.44186, 0
245.7691, 242, 423, 214, -17.44186, 0
245.7902, 245, 423, 214, -17.44186, 0
245.8092, 244, 423, 214, -17.44186, 0
245.8262, 239, 423, 214, -17.44186, 0
245.8449, 229, 423, 213, -18.13953, 0
245.8651, 228, 415, 220, -13.25581, 0
245.8858, 218, 423, 212, -18.83721, 0
245.9059, 203, 422, 212, -18.83721, 0
245.926, 193, 422, 214, -17.44186, 0
245.9429, 179, 422, 214, -17.44186, 0
245.9641, 166, 422, 214, -17.44186, 0
245.984, 151, 423, 214, -17.44186, 0
246.0042, 140, 423, 214, -17.44186, 0
246.0244, 127, 423, 214, -17.44186, 0
246.0448, 120, 422, 214, -17.44186, 0
246.0611, 109, 422, 214, -17.44186, 0
246.0817, 99, 422, 214, -17.44186, 0
246.1034, 93, 422, 214, -17.44186, 0
246.1232, 88, 422, 214, -17.44186, 0
246.144, 83, 422, 214, -17.44186, 0
246.1666, 78, 422, 214, -17.44186, 0
246.1843, 75, 422, 214, -17.44186, 0
246.2031, 74, 422, 214, -17.44186, 0
246.2245, 73, 423, 214, -17.44186, 0
246.2446, 71, 422, 214, -17.44186, 0
246.263, 74, 423, 214, -17.44186, 0
246.2842, 74, 423, 214, -17.44186, 0
246.301, 72, 423, 214, -17.44186, 0
246.3203, 72, 423, 214, -17.44186, 0
246.34, 71, 423, 214, -17.44186, 0
246.3609, 73, 423, 214, -17.44186, 0
246.3819, 72, 422, 214, -17.44186, 0
246.4025, 77, 423, 214, -17.44186, 0
246.4184, 88, 423, 214, -17.44186, 0
246.4388, 109, 423, 213, -18.13953, 0
246.4585, 133, 423, 214, -17.44186, 0
246.4789, 153, 422, 214, -17.44186, 0
246.5002, 171, 422, 214, -17.44186, 0
246.5204, 189, 422, 214, -17.44186, 0
246.5384, 200, 422, 213, -18.13953, 0
246.5568, 212, 422, 213, -18.13953, 0
246.5775, 215, 423, 214, -17.44186, 0
246.5985, 216, 422, 214, -17.44186, 0
246.6191, 219, 423, 214, -17.44186, 0
246.6397, 220, 422, 214, -17.44186, 0
246.6552, 220, 423, 213, -18.13953, 0
246.6759, 217, 423, 213, -18.13953, 0
246.6962, 218, 423, 214, -17.44186, 0
246.7166, 214, 422, 214, -17.44186, 0
246.7373, 207, 422, 214, -17.44186, 0
246.7574, 202, 422, 214, -17.44186, 0
246.7744, 194, 423, 214, -17.44186, 0
246.7945, 185, 423, 214, -17.44186, 0
246.8165, 176, 423, 214, -17.44186, 0
246.8361, 170, 423, 214, -17.44186, 0
246.8557, 166, 423, 214, -17.44186, 0
246.8767, 161, 423, 214, -17.44186, 0
246.8932, 155, 423, 214, -17.44186, 0
246.9131, 152, 423, 214, -17.44186, 0
246.9339, 148, 423, 214, -17.44186, 0
246.9542, 144, 423, 214, -17.44186, 0
246.9746, 146, 423, 214, -17.44186, 0
246.9909, 148, 423, 214, -17.44186, 0
247.0115, 149, 423, 213, -18.13953, 0
247.0336, 153, 423, 214, -17.44186, 0
247.0538, 155, 423, 214, -17.44186, 0
247.0733, 163, 423, 214, -17.44186, 0
247.0957, 170, 423, 214, -17.44186, 0
247.1133, 175, 423, 214, -17.44186, 0
247.1336, 180, 423, 213, -18.13953, 0
247.1552, 188, 423, 213, -18.13953, 0
247.1747, 193, 423, 214, -17.44186, 0
247.1946, 202, 423, 214, -17.44186, 0
247.216, 208, 423, 213, -18.13953, 0
247.2354, 215, 424, 213, -18.13953, 0
247.2506, 219, 424, 213, -18.13953, 0
247.2711, 224, 424, 213, -18.13953, 0
247.2905, 232, 424, 214, -17.44186, 0
247.3104, 237, 423, 214, -17.44186, 0
247.3308, 248, 422, 213, -18.13953, 0
247.3473, 258, 424, 213, -18.13953, 0
247.3694, 267, 424, 213, -18.13953, 0
247.3915, 278, 424, 214, -17.44186, 0
247.4128, 288, 423, 214, -17.44186, 0
247.4305, 288, 423, 214, -17.44186, 0
247.4529, 294, 424, 214, -17.44186, 0
247.4707, 296, 423, 213, -18.13953, 0
247.4886, 295, 423, 213, -18.13953, 0
247.509, 295, 423, 213, -18.13953, 0
247.5287, 299, 423, 214, -17.44186, 0
247.5488, 303, 424, 213, -18.13953, 0
247.5706, 307, 424, 214, -17.44186, 0
247.5861, 313, 424, 213, -18.13953, 0
247.6053, 318, 423, 213, -18.13953, 0
247.6262, 325, 424, 213, -18.13953, 0
247.6464, 331, 423, 214, -17.44186, 0
247.6684, 333, 423, 213, -18.13953, 0
247.6884, 340, 423, 214, -17.44186, 0
247.7037, 342, 423, 214, -17.44186, 0
247.7241, 340, 423, 214, -17.44186, 0
247.745, 337, 423, 214, -17.44186, 0
247.7654, 336, 423, 214, -17.44186, 0
247.787, 330, 423, 214, -17.44186, 0
247.8072, 324, 423, 214, -17.44186, 0
247.8232, 326, 423, 214, -17.44186, 0
247.8434, 327, 423, 213, -18.13953, 0
247.864, 328, 422, 214, -17.44186, 0
247.8859, 332, 423, 214, -17.44186, 0
247.905, 331, 422, 214, -17.44186, 0
247.9254, 335, 423, 214, -17.44186, 0
247.9414, 338, 422, 213, -18.13953, 0
247.9621, 340, 423, 214, -17.44186, 0
247.9828, 348, 423, 214, -17.44186, 0
248.004, 362, 422, 214, -17.44186, 0
248.024, 368, 422, 214, -17.44186, 0
248.0446, 372, 422, 214, -17.44186, 0
248.0609, 378, 422, 213, -18.13953, 0
248.0826, 389, 422, 214, -17.44186, 0
248.1039, 401, 422, 214, -17.44186, 0
248.1214, 411, 423, 214, -17.44186, 0
248.1419, 422, 423, 213, -18.13953, 0
248.1593, 445, 422, 213, -18.13953, 0
248.1788, 463, 422, 213, -18.13953, 0
248.1995, 484, 423, 213, -18.13953, 0
248.2208, 510, 423, 213, -18.13953, 0
248.2412, 537, 423, 214, -17.44186, 0
248.2612, 563, 423, 214, -17.44186, 0
248.2779, 589, 424, 214, -17.44186, 0
248.2979, 617, 423, 214, -17.44186, 0
248.3205, 646, 423, 213, -18.13953, 0
248.3387, 672, 423, 214, -17.44186, 0
248.3592, 696, 423, 214, -17.44186, 0
248.3799, 712, 423, 214, -17.44186, 0
248.3964, 723, 423, 213, -18.13953, 0
248.4168, 727, 423, 214, -17.44186, 0
248.4168: Grabbed object
248.4377, 727, 424, 213, -18.13953, 0
248.4578, 728, 423, 214, -17.44186, 0
248.4782, 727, 423, 213, -18.13953, 0
248.4989, 727, 424, 213, -18.13953, 0
248.5175, 726, 424, 213, -18.13953, 0
248.5369, 726, 423, 213, -18.13953, 0
248.556, 726, 423, 213, -18.13953, 0
248.576, 727, 424, 213, -18.13953, 0
248.5983, 726, 424, 213, -18.13953, 0
248.6175, 727, 424, 213, -18.13953, 0
248.637, 726, 425, 213, -18.13953, 0
248.6554, 726, 424, 213, -18.13953, 0
248.6751, 726, 425, 213, -18.13953, 0
248.6959, 726, 426, 213, -18.13953, 0
248.7159, 723, 427, 210, -20.23256, 0
248.7402, 720, 428, 208, -21.62791, 0
248.7578, 697, 430, 202, -25.81395, 0
248.775, 673, 431, 197, -29.30233, 0
248.7943, 641, 438, 193, -32.09302, 0
248.8153, 612, 432, 183, -39.06977, 0
248.8353, 587, 433, 184, -38.37209, 0
248.8561, 559, 434, 181, -40.46511, 0
248.8738, 499, 436, 176, -43.95349, 0
248.8936, 431, 438, 167, -50.23256, 0
248.9137, 374, 441, 163, -53.02325, 0
248.9336, 332, 441, 159, -55.81395, 0
248.9569, 317, 443, 151, -61.39535, 0
248.9748, 273, 444, 146, -64.88372, 0
248.9932, 222, 448, 140, -69.06977, 0
249.0131, 215, 446, 128, -77.44186, 0
249.0131: Released object
249.0325, 204, 448, 131, -75.34884, 0
249.0526, 192, 447, 129, -76.74419, 0
249.0733, 160, 449, 117, -85.11628, 0
249.0903, 146, 446, 119, -83.72093, 0
249.1089, 129, 443, 115, -86.51163, 0
249.1293, 140, 441, 114, -87.2093, 0
249.1501, 148, 440, 110, -90, 0
249.1726, 187, 442, 108, -91.39535, 0
249.1913, 273, 444, 101, -96.27907, 0
249.2077, 334, 442, 97, -99.06977, 0
249.2278, 404, 445, 93, -101.8605, 0
249.2485, 470, 441, 92, -102.5581, 0
249.2695, 510, 441, 91, -103.2558, 0
249.2891, 534, 438, 87, -106.0465, 0
249.3092, 556, 433, 94, -101.1628, 0
249.3254, 562, 431, 95, -100.4651, 0
249.3466, 563, 430, 95, -100.4651, 0
249.3668, 551, 428, 96, -99.76744, 0
249.3881, 508, 427, 99, -97.67442, 0
249.4077, 436, 428, 95, -100.4651, 0
249.4282, 376, 427, 98, -98.37209, 0
249.4446, 323, 427, 99, -97.67442, 0
249.4676, 283, 425, 102, -95.5814, 0
249.4864, 259, 424, 104, -94.18604, 0
249.5059, 242, 424, 105, -93.48837, 0
249.5263, 234, 424, 105, -93.48837, 0
249.5466, 241, 425, 105, -93.48837, 0
249.5644, 254, 425, 104, -94.18604, 0
249.5841, 295, 425, 104, -94.18604, 0
249.6067, 353, 425, 104, -94.18604, 0
249.6258, 404, 424, 104, -94.18604, 0
249.6462, 448, 422, 104, -94.18604, 0
249.6653, 477, 418, 105, -93.48837, 0
249.6823, 506, 415, 105, -93.48837, 0
249.7035, 505, 412, 106, -92.7907, 0
249.7236, 475, 407, 108, -91.39535, 0
249.7437, 433, 401, 112, -88.60465, 0
249.7639, 366, 395, 117, -85.11628, 180
249.7857, 291, 403, 84, -108.1395, 180
249.8035, 243, 416, 64, -122.093, 180
249.8221, 199, 433, 66, -120.6977, 180
249.8419, 183, 434, 73, -115.814, 180
249.8626, 159, 444, 82, -109.5349, 180
249.8829, 156, 446, 88, -105.3488, 180
249.9011, 129, 447, 98, -98.37209, 180
249.9203, 110, 450, 114, -87.2093, 180
249.9401, 98, 449, 125, -79.53488, 180
249.9605, 83, 449, 129, -76.74419, 180
249.9809, 88, 442, 130, -76.04651, 180
250.0023, 100, 440, 135, -72.55814, 180
250.0197, 101, 439, 137, -71.16279, 180
250.0383, 86, 439, 137, -71.16279, 180
250.0588, 72, 438, 136, -71.86047, 180
250.0797, 64, 436, 136, -71.86047, 180
250.0998, 56, 437, 140, -69.06977, 180
250.1207, 51, 444, 144, -66.27907, 180
250.1373, 93, 436, 147, -64.18604, 180
250.1575, 119, 437, 151, -61.39535, 180
250.1776, 131, 438, 154, -59.30233, 180
250.2012, 116, 438, 158, -56.51163, 180
250.2229, 103, 438, 161, -54.41861, 180
250.244, 96, 443, 168, -49.53489, 180
250.2597, 94, 445, 163, -53.02325, 180
250.2793, 102, 441, 182, -39.76744, 180
250.3001, 125, 438, 186, -36.97675, 180
250.3215, 140, 440, 191, -33.48837, 180
250.3385, 163, 427, 188, -35.58139, 180
250.3589, 170, 431, 166, -50.93023, 180
250.3742, 156, 456, 167, -50.23256, 0
250.3945, 177, 434, 254, 10.46512, 0
250.4149, 153, 443, 215, -16.74419, 0
250.4366, 132, 446, 202, -25.81395, 0
250.457, 122, 441, 189, -34.88372, 0
250.4766, 120, 440, 191, -33.48837, 0
250.4959, 123, 432, 188, -35.58139, 0
250.5134, 123, 429, 193, -32.09302, 0
250.5348, 120, 433, 199, -27.90698, 0
250.5546, 125, 425, 199, -27.90698, 0
250.5752, 117, 424, 202, -25.81395, 0
250.5956, 109, 422, 204, -24.4186, 0
250.6117, 102, 421, 209, -20.93023, 0
250.632, 92, 421, 213, -18.13953, 0
250.6539, 85, 421, 215, -16.74419, 0
250.6741, 79, 421, 215, -16.74419, 0
250.6936, 71, 422, 215, -16.74419, 0
250.7141, 72, 422, 215, -16.74419, 0
250.7304, 71, 422, 214, -17.44186, 0
250.7524, 69, 423, 214, -17.44186, 0
250.7715, 71, 423, 214, -17.44186, 0
250.7918, 81, 424, 212, -18.83721, 0
250.8127, 80, 423, 211, -19.53488, 0
250.8332, 98, 423, 213, -18.13953, 0
250.8497, 111, 423, 214, -17.44186, 0
250.8703, 109, 423, 214, -17.44186, 0
250.8912, 102, 423, 214, -17.44186, 0
250.9135, 97, 423, 214, -17.44186, 0
250.9393, 98, 423, 214, -17.44186, 0
250.9523, 100, 422, 214, -17.44186, 0
250.9696, 91, 422, 214, -17.44186, 0
250.9892, 81, 423, 214, -17.44186, 0
251.0095, 72, 423, 214, -17.44186, 0
251.0298, 64, 422, 214, -17.44186, 0
251.0508, 59, 423, 214, -17.44186, 0
251.0678, 54, 423, 214, -17.44186, 0
251.0879, 57, 423, 213, -18.13953, 0
251.1095, 60, 422, 214, -17.44186, 0
251.1284, 59, 423, 214, -17.44186, 0
251.1486, 66, 423, 214, -17.44186, 0
251.1701, 69, 423, 214, -17.44186, 0
251.187, 73, 423, 213, -18.13953, 0
251.2076, 73, 423, 214, -17.44186, 0
251.2283, 74, 423, 213, -18.13953, 0
251.2484, 76, 423, 213, -18.13953, 0
251.2693, 83, 423, 213, -18.13953, 0
251.2912, 84, 424, 213, -18.13953, 0
251.3058, 78, 423, 213, -18.13953, 0
251.3257, 79, 423, 213, -18.13953, 0
251.3462, 72, 423, 213, -18.13953, 0
251.365, 70, 424, 213, -18.13953, 0
251.387, 63, 424, 213, -18.13953, 0
251.4069, 56, 423, 213, -18.13953, 0
251.4235, 54, 424, 213, -18.13953, 0
251.4433, 57, 424, 213, -18.13953, 0
251.4642, 62, 424, 213, -18.13953, 0
251.4856, 65, 423, 213, -18.13953, 0
251.5052, 72, 423, 213, -18.13953, 0
251.5265, 75, 424, 213, -18.13953, 0
251.5424, 89, 423, 213, -18.13953, 0
251.5637, 104, 423, 213, -18.13953, 0
251.5838, 119, 423, 213, -18.13953, 0
251.6044, 125, 424, 213, -18.13953, 0
251.6242, 120, 424, 213, -18.13953, 0
251.6443, 117, 423, 213, -18.13953, 0
251.6608, 117, 424, 213, -18.13953, 0
251.6811, 112, 424, 213, -18.13953, 0
251.7026, 108, 424, 213, -18.13953, 0
251.7225, 106, 424, 213, -18.13953, 0
251.7439, 100, 424, 213, -18.13953, 0
251.7632, 92, 424, 213, -18.13953, 0
251.7794, 84, 424, 213, -18.13953, 0
251.8004, 78, 424, 213, -18.13953, 0
251.8213, 74, 424, 213, -18.13953, 0
251.8414, 70, 424, 213, -18.13953, 0
251.8617, 68, 424, 213, -18.13953, 0
251.8812, 63, 424, 213, -18.13953, 0
251.8983, 62, 424, 213, -18.13953, 0
251.9194, 60, 424, 213, -18.13953, 0
251.9391, 54, 425, 213, -18.13953, 0
251.9603, 56, 425, 213, -18.13953, 0
251.9798, 62, 425, 211, -19.53488, 0
252.0004, 63, 425, 212, -18.83721, 0
252.0176, 57, 424, 211, -19.53488, 0
252.0372, 52, 424, 210, -20.23256, 0
252.0574, 54, 424, 209, -20.93023, 0
252.078, 61, 424, 208, -21.62791, 0
252.0981, 78, 424, 208, -21.62791, 0
252.1146, 94, 424, 207, -22.32558, 0
252.1383, 97, 423, 205, -23.72093, 0
252.1581, 111, 423, 206, -23.02326, 0
252.1795, 118, 423, 206, -23.02326, 0
252.1982, 125, 423, 205, -23.72093, 0
252.2197, 135, 422, 206, -23.02326, 0
252.2366, 147, 421, 207, -22.32558, 0
252.2562, 155, 422, 208, -21.62791, 0
252.2762, 161, 422, 208, -21.62791, 0
252.2966, 165, 422, 208, -21.62791, 0
252.3181, 170, 421, 208, -21.62791, 0
252.3392, 175, 422, 208, -21.62791, 0
252.3539, 184, 422, 208, -21.62791, 0
252.3736, 181, 422, 208, -21.62791, 0
252.3943, 177, 422, 208, -21.62791, 0
252.4138, 171, 422, 208, -21.62791, 0
252.4353, 159, 422, 209, -20.93023, 0
252.455, 150, 422, 208, -21.62791, 0
252.471, 146, 422, 208, -21.62791, 0
252.4918, 137, 422, 208, -21.62791, 0
252.5125, 121, 422, 208, -21.62791, 0
252.5332, 102, 422, 208, -21.62791, 0
252.554, 90, 422, 208, -21.62791, 0
252.5738, 81, 422, 208, -21.62791, 0
252.5916, 80, 422, 208, -21.62791, 0
252.6102, 81, 422, 208, -21.62791, 0
252.6307, 88, 423, 208, -21.62791, 0
252.652, 98, 422, 209, -20.93023, 0
252.6718, 103, 421, 208, -21.62791, 0
252.6926, 114, 422, 208, -21.62791, 0
252.7085, 114, 421, 208, -21.62791, 0
252.7291, 119, 421, 208, -21.62791, 0
252.7517, 118, 421, 208, -21.62791, 0
252.7741, 119, 421, 208, -21.62791, 0
252.7948, 127, 420, 208, -21.62791, 0
252.8134, 135, 420, 209, -20.93023, 0
252.8302, 144, 419, 208, -21.62791, 0
252.8503, 159, 420, 208, -21.62791, 0
252.8725, 161, 420, 209, -20.93023, 0
252.8893, 164, 418, 209, -20.93023, 0
252.91, 162, 419, 209, -20.93023, 0
252.9304, 158, 418, 209, -20.93023, 0
252.9466, 153, 418, 208, -21.62791, 0
252.9677, 149, 419, 208, -21.62791, 0
252.988, 152, 419, 209, -20.93023, 0
253.0092, 150, 419, 209, -20.93023, 0
253.0287, 144, 420, 209, -20.93023, 0
253.049, 135, 420, 209, -20.93023, 0
253.0664, 126, 420, 208, -21.62791, 0
253.087, 115, 421, 208, -21.62791, 0
253.1065, 99, 421, 208, -21.62791, 0
253.1269, 86, 420, 208, -21.62791, 0
253.1474, 74, 421, 208, -21.62791, 0
253.1688, 66, 421, 208, -21.62791, 0
253.1851, 57, 421, 208, -21.62791, 0
253.205, 52, 421, 208, -21.62791, 0
253.2263, 49, 421, 208, -21.62791, 0
253.2457, 57, 420, 208, -21.62791, 0
253.2662, 79, 420, 208, -21.62791, 0
253.2875, 105, 420, 208, -21.62791, 0
253.3043, 123, 420, 208, -21.62791, 0
253.3246, 120, 420, 208, -21.62791, 0
253.3448, 114, 420, 208, -21.62791, 0
253.3644, 110, 420, 208, -21.62791, 0
253.3859, 109, 420, 208, -21.62791, 0
253.4055, 111, 420, 208, -21.62791, 0
253.4055: Grabbed object
253.4234, 111, 420, 208, -21.62791, 0
253.4428, 114, 420, 208, -21.62791, 0
253.4627, 115, 419, 208, -21.62791, 0
253.4835, 102, 418, 208, -21.62791, 0
253.5044, 97, 418, 208, -21.62791, 0
253.5207, 88, 417, 208, -21.62791, 0
253.5405, 80, 416, 208, -21.62791, 0
253.5609, 87, 416, 208, -21.62791, 0
253.5817, 83, 415, 208, -21.62791, 0
253.603, 75, 415, 208, -21.62791, 0
253.6226, 71, 414, 208, -21.62791, 0
253.6401, 77, 415, 208, -21.62791, 0
253.6594, 91, 416, 208, -21.62791, 0
253.6798, 89, 418, 208, -21.62791, 0
253.7002, 107, 419, 208, -21.62791, 0
253.7212, 115, 420, 208, -21.62791, 0
253.7413, 105, 422, 208, -21.62791, 0
253.7586, 108, 425, 207, -22.32558, 0
253.7778, 99, 428, 202, -25.81395, 0
253.7993, 96, 430, 195, -30.69767, 0
253.8211, 128, 432, 189, -34.88372, 0
253.8401, 123, 434, 183, -39.06977, 0
253.8602, 115, 436, 176, -43.95349, 0
253.8767, 115, 438, 169, -48.83721, 0
253.8965, 95, 440, 166, -50.93023, 0
253.917, 98, 445, 161, -54.41861, 0
253.9375, 109, 442, 156, -57.90698, 0
253.958, 110, 441, 150, -62.09302, 0
253.9798, 95, 439, 151, -61.39535, 0
253.9953, 95, 439, 147, -64.18604, 0
254.0149, 96, 442, 142, -67.67442, 0
254.0364, 101, 439, 143, -66.97675, 0
254.0563, 110, 443, 142, -67.67442, 0
254.0776, 145, 439, 137, -71.16279, 0
254.0969, 202, 442, 130, -76.04651, 0
254.0969: Released object
254.1134, 269, 445, 121, -82.32558, 0
254.1347, 318, 443, 120, -83.02325, 0
254.1543, 435, 443, 115, -86.51163, 0
254.1748, 528, 442, 111, -89.30232, 0
254.196, 639, 438, 109, -90.69768, 0
254.2156, 674, 441, 105, -93.48837, 0
254.2323, 674, 442, 101, -96.27907, 0
254.2536, 677, 439, 101, -96.27907, 0
254.2746, 675, 437, 100, -96.97675, 0
254.2948, 680, 438, 94, -101.1628, 0
254.3141, 682, 436, 96, -99.76744, 0
254.3355, 685, 435, 95, -100.4651, 0
254.3518, 691, 434, 96, -99.76744, 0
254.3713, 695, 432, 95, -100.4651, 0
254.3921, 692, 439, 96, -99.76744, 0
254.4133, 695, 438, 96, -99.76744, 0
254.434, 705, 429, 97, -99.06977, 0
254.4543, 709, 429, 98, -98.37209, 0
254.4698, 710, 428, 98, -98.37209, 0
254.4901, 714, 427, 99, -97.67442, 0
254.5147, 718, 426, 100, -96.97675, 0
254.5358, 722, 426, 102, -95.5814, 0
254.5556, 727, 426, 104, -94.18604, 0
254.5708, 726, 426, 104, -94.18604, 0
254.5906, 726, 426, 104, -94.18604, 0
254.6116, 725, 424, 104, -94.18604, 0
254.6299, 726, 423, 104, -94.18604, 0
254.651, 725, 421, 104, -94.18604, 0
254.6718, 726, 417, 104, -94.18604, 0
254.6883, 726, 414, 105, -93.48837, 0
254.7077, 725, 409, 105, -93.48837, 0
254.7289, 730, 405, 109, -90.69768, 0
254.7485, 738, 401, 114, -87.2093, 0
254.77, 744, 397, 119, -83.72093, 180
254.7896, 678, 403, 83, -108.8372, 180
254.8084, 637, 419, 65, -121.3953, 180
254.8312, 635, 427, 68, -119.3023, 180
254.8474, 636, 433, 71, -117.2093, 180
254.8694, 637, 442, 82, -109.5349, 180
254.8884, 642, 445, 87, -106.0465, 180
254.9087, 650, 446, 96, -99.76744, 180
254.9258, 636, 445, 104, -94.18604, 180
254.9449, 556, 441, 116, -85.81396, 180
254.9652, 465, 442, 122, -81.62791, 180
254.9867, 368, 440, 127, -78.13953, 180
255.0066, 283, 439, 129, -76.74419, 180
255.0267, 229, 440, 132, -74.65116, 180
255.0436, 235, 437, 133, -73.95349, 180
255.064, 242, 445, 137, -71.16279, 180
255.0848, 263, 444, 143, -66.97675, 180
255.1046, 300, 445, 146, -64.88372, 180
255.1251, 323, 437, 145, -65.5814, 180
255.1466, 351, 437, 153, -60, 180
255.1618, 363, 437, 157, -57.2093, 180
255.1828, 365, 449, 163, -53.02325, 180
255.2037, 431, 440, 165, -51.62791, 180
255.2233, 486, 440, 176, -43.95349, 180
255.2438, 508, 442, 181, -40.46511, 180
255.2602, 491, 442, 186, -36.97675, 180
255.2808, 456, 442, 193, -32.09302, 180
255.3048, 411, 443, 202, -25.81395, 180
255.3246, 351, 443, 207, -22.32558, 180
255.3456, 328, 442, 212, -18.83721, 180
255.3705, 317, 441, 217, -15.34884, 180
255.3853, 318, 435, 225, -9.767442, 180
255.4004, 334, 423, 229, -6.976744, 180
255.4214, 336, 414, 210, -20.23256, 180
255.4408, 325, 427, 173, -46.04651, 180
255.461, 294, 458, 173, -46.04651, 0
255.4813, 325, 444, 239, 0, 0
255.4982, 293, 446, 209, -20.93023, 0
255.5195, 275, 445, 195, -30.69767, 0
255.5387, 259, 441, 189, -34.88372, 0
255.5592, 257, 438, 186, -36.97675, 0
255.5804, 250, 441, 188, -35.58139, 0
255.6004, 260, 432, 185, -37.67442, 0
255.6176, 270, 430, 187, -36.27907, 0
255.6372, 288, 425, 197, -29.30233, 0
255.6585, 308, 423, 199, -27.90698, 0
255.6785, 330, 421, 201, -26.51163, 0
255.6988, 357, 420, 200, -27.2093, 0
255.7203, 391, 419, 214, -17.44186, 0
255.7363, 411, 419, 215, -16.74419, 0
255.7563, 429, 419, 215, -16.74419, 0
255.7763, 443, 419, 215, -16.74419, 0
255.8011, 452, 419, 215, -16.74419, 0
255.8175, 466, 419, 215, -16.74419, 0
255.8376, 476, 420, 215, -16.74419, 0
255.8542, 476, 420, 215, -16.74419, 0
255.8745, 483, 420, 215, -16.74419, 0
255.8965, 482, 420, 214, -17.44186, 0
255.9153, 481, 420, 214, -17.44186, 0
255.9369, 472, 420, 214, -17.44186, 0
255.9568, 464, 420, 214, -17.44186, 0
255.9735, 449, 421, 214, -17.44186, 0
255.9931, 436, 421, 214, -17.44186, 0
256.0151, 422, 421, 214, -17.44186, 0
256.0352, 413, 421, 214, -17.44186, 0
256.0547, 396, 421, 214, -17.44186, 0
256.0782, 373, 421, 214, -17.44186, 0
256.0952, 351, 421, 214, -17.44186, 0
256.115, 331, 421, 214, -17.44186, 0
256.1358, 319, 421, 214, -17.44186, 0
256.1573, 310, 421, 214, -17.44186, 0
256.1774, 298, 421, 214, -17.44186, 0
256.1949, 295, 421, 214, -17.44186, 0
256.2125, 294, 421, 214, -17.44186, 0
256.2317, 291, 422, 214, -17.44186, 0
256.2535, 286, 422, 214, -17.44186, 0
256.2736, 291, 422, 214, -17.44186, 0
256.2936, 292, 422, 214, -17.44186, 0
256.3143, 290, 421, 214, -17.44186, 0
256.3309, 292, 421, 214, -17.44186, 0
256.3503, 295, 422, 214, -17.44186, 0
256.3722, 301, 421, 214, -17.44186, 0
256.3916, 310, 421, 214, -17.44186, 0
256.4123, 322, 421, 214, -17.44186, 0
256.4351, 333, 422, 214, -17.44186, 0
256.4502, 342, 421, 214, -17.44186, 0
256.4702, 352, 422, 214, -17.44186, 0
256.4899, 361, 422, 214, -17.44186, 0
256.5103, 386, 422, 214, -17.44186, 0
256.5307, 408, 421, 214, -17.44186, 0
256.5512, 426, 422, 227, -8.372093, 0
256.5681, 438, 422, 212, -18.83721, 0
256.5883, 453, 422, 212, -18.83721, 0
256.6086, 474, 421, 214, -17.44186, 0
256.6289, 495, 421, 214, -17.44186, 0
256.6517, 510, 421, 214, -17.44186, 0
256.6717, 512, 421, 214, -17.44186, 0
256.69, 506, 421, 214, -17.44186, 0
256.7088, 459, 421, 214, -17.44186, 0
256.7267, 396, 422, 214, -17.44186, 0
256.747, 339, 421, 214, -17.44186, 0
256.7699, 297, 422, 214, -17.44186, 0
256.788, 266, 422, 214, -17.44186, 0
256.8047, 237, 422, 214, -17.44186, 0
