UA-Ange: 0, ForearmStretched: 221, Forearm: 91, LeftArm? Yes
Time, EMG-Signal, Force-Value, Elbow-Angle, Transformed-Angle, MotorTarget
51.14665, 17, 418, 91, -90, 0
51.14665, 17, 418, 91, -90, 0
51.16665, 17, 418, 91, -90, 0
51.19291, 17, 418, 91, -90, 0
51.20852, 17, 418, 91, -90, 0
51.22258, 17, 418, 91, -90, 0
51.23768, 17, 418, 91, -90, 0
51.25275, 418, 162, 91, -90, 17
51.26913, 17, 418, 91, -90, 0
51.28389, 17, 418, 91, -90, 0
51.29981, 17, 417, 91, -90, 0
51.31455, 17, 418, 91, -90, 0
51.3298, 17, 418, 92, -89.30769, 0
51.34288, 17, 418, 91, -90, 0
51.35453, 17, 418, 91, -90, 0
51.37357, 17, 418, 91, -90, 0
51.3882, 17, 418, 91, -90, 0
51.40268, 17, 418, 91, -90, 0
51.41799, 17, 418, 91, -90, 0
51.43384, 17, 418, 91, -90, 0
51.45052, 17, 418, 91, -90, 0
51.46733, 0, 17570, 91, -90, 23551
51.48416, 17, 418, 91, -90, 0
51.50107, 17, 418, 91, -90, 0
51.51608, 17, 417, 91, -90, 0
51.5306, 17, 418, 92, -89.30769, 0
51.54513, 16, 418, 91, -90, 0
51.55952, 16, 418, 91, -90, 0
51.58391, 16, 418, 91, -90, 0
51.60094, 16, 418, 91, -90, 0
51.61568, 17, 418, 91, -90, 0
51.63285, 17, 417, 91, -90, 0
51.64715, 17, 418, 92, -89.30769, 0
51.66571, 17, 418, 91, -90, 0
51.68412, 17, 418, 91, -90, 0
51.69652, 17, 418, 91, -90, 0
51.71229, 17, 418, 91, -90, 0
51.72901, 17, 418, 91, -90, 0
51.74419, 17, 418, 91, -90, 0
51.75873, 16, 418, 91, -90, 0
51.7727, 17, 418, 92, -89.30769, 0
51.79121, 17, 418, 92, -89.30769, 0
51.80458, 16, 418, 91, -90, 0
51.81895, 17, 418, 91, -90, 0
51.83406, 17, 418, 91, -90, 0
51.84795, 17, 418, 91, -90, 0
51.86049, 17, 418, 91, -90, 0
51.87189, 17, 418, 91, -90, 0
51.88506, 17, 418, 91, -90, 0
51.89827, 17, 418, 91, -90, 0
51.90856, 17, 418, 91, -90, 0
51.92439, 17, 418, 91, -90, 0
51.93632, 17, 417, 91, -90, 0
51.9511, 17, 418, 91, -90, 0
51.96388, 17, 418, 91, -90, 0
51.97786, 16, 418, 91, -90, 0
51.99064, 17, 418, 91, -90, 0
52.0069, 17, 418, 91, -90, 0
52.02052, 17, 418, 91, -90, 0
52.03497, 17, 418, 91, -90, 0
52.05132, 16, 418, 91, -90, 0
52.06585, 17, 418, 91, -90, 0
52.07983, 17, 417, 91, -90, 0
52.12892, 17, 417, 91, -90, 0
52.14183, 17, 417, 91, -90, 0
52.1682, 16, 418, 91, -90, 0
52.17989, 17, 417, 91, -90, 0
52.20002, 16, 418, 91, -90, 0
52.21215, 17, 418, 91, -90, 0
52.24763, 17, 417, 91, -90, 0
52.2553, 17, 418, 91, -90, 0
52.26882, 17, 418, 91, -90, 0
52.29287, 17, 418, 91, -90, 0
52.31588, 17, 418, 91, -90, 0
52.32978, 16, 418, 91, -90, 0
52.34786, 17, 417, 91, -90, 0
52.36238, 17, 418, 91, -90, 0
52.3839, 17, 418, 91, -90, 0
52.39881, 17, 417, 91, -90, 0
52.41321, 17, 418, 91, -90, 0
52.43588, 16, 418, 91, -90, 0
52.44965, 17, 418, 91, -90, 0
52.46312, 17, 417, 91, -90, 0
52.48264, 17, 418, 91, -90, 0
52.49265, 17, 417, 91, -90, 0
52.5107, 17, 417, 91, -90, 0
52.53361, 17, 417, 91, -90, 0
52.54815, 17, 418, 91, -90, 0
52.5585, 17, 418, 91, -90, 0
52.57401, 17, 417, 91, -90, 0
52.59153, 17, 417, 91, -90, 0
52.60974, 17, 417, 91, -90, 0
52.62454, 17, 417, 91, -90, 0
52.63937, 17, 417, 91, -90, 0
52.65217, 17, 417, 91, -90, 0
52.68394, 16, 417, 91, -90, 0
52.69155, 16, 417, 91, -90, 0
52.70677, 17, 417, 91, -90, 0
52.72426, 17, 416, 91, -90, 0
52.74047, 17, 417, 91, -90, 0
52.75612, 17, 417, 91, -90, 0
52.77406, 17, 416, 91, -90, 0
52.78911, 17, 417, 92, -89.30769, 0
52.80327, 17, 417, 91, -90, 0
52.82132, 16, 417, 91, -90, 0
52.83533, 17, 417, 91, -90, 0
52.85446, 17, 417, 91, -90, 0
52.86975, 17, 417, 91, -90, 0
52.88348, 17, 417, 91, -90, 0
52.906, 17, 417, 91, -90, 0
52.92252, 17, 416, 91, -90, 0
52.9343, 16, 417, 91, -90, 0
52.95359, 17, 416, 91, -90, 0
52.96841, 17, 416, 91, -90, 0
52.99712, 17, 417, 91, -90, 0
53.00439, 17, 416, 92, -89.30769, 0
53.01928, 17, 417, 91, -90, 0
53.03654, 17, 417, 91, -90, 0
53.05271, 16, 417, 91, -90, 0
53.06908, 17, 416, 91, -90, 0
53.08876, 17, 416, 91, -90, 0
53.1031, 17, 417, 91, -90, 0
53.11728, 17, 417, 91, -90, 0
53.13685, 17, 417, 91, -90, 0
53.1504, 17, 416, 91, -90, 0
53.17132, 17, 416, 91, -90, 0
53.18613, 17, 416, 91, -90, 0
53.2011, 17, 416, 91, -90, 0
53.22015, 17, 416, 91, -90, 0
53.2374, 17, 415, 91, -90, 0
53.25042, 17, 415, 91, -90, 0
53.26907, 17, 414, 92, -89.30769, 0
53.28226, 17, 413, 91, -90, 0
53.30296, 17, 413, 91, -90, 0
53.31745, 17, 412, 91, -90, 0
53.32931, 17, 412, 92, -89.30769, 0
53.35398, 17, 411, 92, -89.30769, 0
53.36742, 17, 410, 92, -89.30769, 0
53.37999, 17, 409, 92, -89.30769, 0
53.39708, 16, 409, 92, -89.30769, 0
53.41242, 16, 408, 92, -89.30769, 0
53.42694, 17, 408, 92, -89.30769, 0
53.4451, 17, 408, 92, -89.30769, 0
53.46081, 17, 407, 92, -89.30769, 0
53.47659, 17, 407, 92, -89.30769, 0
53.4964, 17, 406, 92, -89.30769, 0
53.51696, 17, 406, 93, -88.61539, 0
53.53102, 17, 405, 93, -88.61539, 0
53.55353, 17, 405, 92, -89.30769, 0
53.57541, 17, 404, 93, -88.61539, 0
53.59475, 17, 403, 92, -89.30769, 0
53.61505, 17, 403, 92, -89.30769, 0
53.63232, 17, 402, 92, -89.30769, 0
53.65358, 17, 402, 92, -89.30769, 0
53.67249, 17, 401, 93, -88.61539, 0
53.69249, 17, 400, 96, -86.53846, 0
53.71477, 17, 399, 96, -86.53846, 180
53.73481, 19, 408, 71, -103.8462, 180
53.75025, 15, 424, 50, -118.3846, 180
53.77067, 17, 434, 55, -114.9231, 180
53.79082, 19, 437, 60, -111.4615, 180
53.81181, 18, 439, 68, -105.9231, 180
53.83185, 17, 442, 76, -100.3846, 180
53.8524, 17, 442, 85, -94.15385, 180
53.86992, 17, 441, 93, -88.61539, 180
53.88898, 16, 440, 96, -86.53846, 180
53.91042, 16, 440, 101, -83.07692, 180
53.93081, 16, 440, 98, -85.15385, 180
53.95, 16, 439, 107, -78.92308, 180
53.97057, 14, 446, 112, -75.46154, 180
53.98724, 16, 439, 116, -72.69231, 180
54.00734, 16, 439, 117, -72, 180
54.02914, 16, 439, 117, -72, 180
54.04852, 15, 440, 122, -68.53846, 180
54.06928, 15, 440, 127, -65.07692, 180
54.09088, 16, 440, 129, -63.69231, 180
54.10673, 16, 440, 132, -61.61538, 180
54.12682, 15, 444, 135, -59.53846, 180
54.14727, 15, 441, 139, -56.76923, 180
54.16878, 16, 439, 143, -54, 180
54.18737, 16, 438, 147, -51.23077, 180
54.2079, 16, 440, 149, -49.84615, 180
54.22418, 16, 440, 149, -49.84615, 180
54.24631, 16, 440, 151, -48.46154, 180
54.26547, 15, 439, 149, -49.84615, 180
54.28585, 15, 442, 147, -51.23077, 180
54.30792, 16, 440, 158, -43.61538, 180
54.3267, 16, 440, 161, -41.53846, 180
54.34322, 15, 442, 156, -45, 180
54.36432, 16, 439, 164, -39.46154, 180
54.38406, 16, 441, 167, -37.38462, 180
54.40418, 16, 442, 169, -36, 180
54.42502, 15, 441, 174, -32.53846, 180
54.44112, 16, 438, 177, -30.46154, 180
54.46099, 16, 440, 181, -27.69231, 180
54.48264, 16, 440, 182, -27, 180
54.50238, 16, 440, 182, -27, 180
54.52485, 16, 441, 183, -26.30769, 180
54.54385, 16, 440, 184, -25.61539, 180
54.55991, 16, 441, 186, -24.23077, 180
54.58088, 23, 441, 187, -23.53846, 180
54.60103, 14, 448, 189, -22.15385, 180
54.62116, 16, 441, 193, -19.38461, 180
54.64227, 16, 440, 195, -18, 180
54.6631, 16, 440, 198, -15.92308, 180
54.68256, 17, 440, 199, -15.23077, 180
54.69989, 17, 440, 200, -14.53846, 180
54.72001, 16, 440, 199, -15.23077, 180
54.7413, 17, 440, 198, -15.92308, 180
54.76165, 16, 441, 198, -15.92308, 180
54.78102, 16, 441, 200, -14.53846, 180
54.79886, 16, 442, 200, -14.53846, 180
54.81807, 17, 441, 202, -13.15385, 180
54.83873, 17, 441, 205, -11.07692, 180
54.85933, 17, 439, 207, -9.692307, 180
54.8803, 17, 441, 210, -7.615385, 180
54.90004, 17, 440, 213, -5.538462, 180
54.91621, 17, 439, 215, -4.153846, 180
54.93762, 17, 439, 216, -3.461539, 180
54.95921, 17, 440, 218, -2.076923, 180
54.97818, 17, 438, 216, -3.461539, 180
54.99828, 17, 438, 219, -1.384615, 180
55.0184, 17, 438, 218, -2.076923, 180
55.03547, 17, 439, 217, -2.769231, 180
55.05584, 17, 439, 217, -2.769231, 180
55.07679, 17, 439, 216, -3.461539, 180
55.09835, 17, 440, 217, -2.769231, 180
55.11712, 16, 439, 211, -6.923077, 180
55.13787, 18, 440, 218, -2.076923, 180
55.15546, 17, 440, 218, -2.076923, 180
55.17456, 17, 438, 217, -2.769231, 180
55.19514, 17, 441, 220, -0.6923077, 180
55.21544, 17, 440, 222, 0.6923077, 180
55.23685, 16, 445, 213, -5.538462, 180
55.25697, 17, 438, 219, -1.384615, 180
55.27327, 17, 440, 225, 2.769231, 180
55.29355, 17, 440, 223, 1.384615, 180
55.31466, 17, 440, 224, 2.076923, 180
55.33435, 18, 439, 225, 2.769231, 180
55.35432, 18, 439, 226, 3.461539, 180
55.37738, 17, 440, 226, 3.461539, 180
55.39091, 16, 440, 225, 2.769231, 180
55.41262, 17, 440, 228, 4.846154, 180
55.43222, 17, 439, 230, 6.230769, 180
55.45288, 18, 439, 230, 6.230769, 180
55.47474, 17, 439, 230, 6.230769, 180
55.49382, 16, 433, 231, 6.923077, 180
55.51015, 17, 440, 229, 5.538462, 180
55.53172, 17, 440, 229, 5.538462, 180
55.55133, 17, 440, 230, 6.230769, 180
55.57146, 18, 440, 229, 5.538462, 180
55.59514, 17, 441, 230, 6.230769, 180
55.61043, 17, 440, 229, 5.538462, 180
55.62986, 18, 441, 229, 5.538462, 180
55.64989, 17, 440, 229, 5.538462, 180
55.67038, 18, 440, 229, 5.538462, 180
55.69019, 17, 440, 229, 5.538462, 180
55.71164, 17, 441, 229, 5.538462, 180
55.72842, 17, 441, 229, 5.538462, 180
55.74784, 17, 441, 229, 5.538462, 180
55.76862, 17, 441, 229, 5.538462, 180
55.78867, 18, 440, 229, 5.538462, 180
55.81028, 18, 441, 229, 5.538462, 180
55.8305, 17, 441, 229, 5.538462, 180
55.84763, 17, 444, 228, 4.846154, 180
55.86707, 17, 444, 227, 4.153846, 180
55.88695, 17, 447, 230, 6.230769, 180
55.90729, 19, 449, 243, 15.23077, 180
55.92758, 19, 437, 243, 15.23077, 180
55.94827, 18, 437, 243, 15.23077, 180
55.96452, 17, 437, 243, 15.23077, 180
55.98534, 18, 437, 243, 15.23077, 180
56.00637, 18, 435, 243, 15.23077, 180
56.02831, 18, 435, 243, 15.23077, 180
56.04903, 18, 430, 243, 15.23077, 180
56.06702, 19, 437, 243, 15.23077, 180
56.08379, 17, 429, 238, 11.76923, 180
56.10448, 16, 416, 207, -9.692307, 180
56.12459, 10, 425, 161, -41.53846, 180
56.14624, 0, 466, 159, -42.92308, 0
56.16597, 17, 443, 226, 3.461539, 0
56.18607, 18, 443, 199, -15.23077, 0
56.20226, 17, 447, 182, -27, 0
56.2227, 16, 446, 172, -33.92308, 0
56.24677, 16, 444, 163, -40.15385, 0
56.26382, 16, 441, 165, -38.76923, 0
56.28428, 14, 441, 157, -44.30769, 0
56.30431, 16, 433, 171, -34.61538, 0
56.32071, 16, 431, 170, -35.30769, 0
56.34156, 16, 429, 177, -30.46154, 0
56.36242, 16, 428, 180, -28.38461, 0
56.38195, 15, 430, 174, -32.53846, 0
56.40333, 16, 426, 180, -28.38461, 0
56.42342, 16, 433, 180, -28.38461, 0
56.44115, 16, 425, 176, -31.15385, 0
56.46095, 16, 428, 178, -29.76923, 0
56.48055, 16, 428, 177, -30.46154, 0
56.50099, 16, 428, 173, -33.23077, 0
56.52161, 16, 429, 169, -36, 0
56.54189, 16, 430, 166, -38.07692, 0
56.55817, 16, 430, 163, -40.15385, 0
56.57949, 16, 429, 161, -41.53846, 0
56.59947, 16, 429, 157, -44.30769, 0
56.62008, 16, 429, 157, -44.30769, 0
56.64014, 14, 437, 159, -42.92308, 0
56.66311, 16, 428, 152, -47.76923, 0
56.67845, 15, 432, 148, -50.53846, 0
56.69791, 16, 429, 152, -47.76923, 0
56.7178, 16, 429, 149, -49.84615, 0
56.73854, 15, 429, 148, -50.53846, 0
56.75938, 16, 427, 145, -52.61538, 0
56.77642, 16, 428, 145, -52.61538, 0
56.79732, 17, 429, 144, -53.30769, 0
56.81641, 16, 428, 143, -54, 0
56.83705, 16, 429, 141, -55.38462, 0
56.85775, 16, 428, 132, -61.61538, 0
56.88004, 16, 428, 138, -57.46154, 0
56.89784, 16, 428, 136, -58.84615, 0
56.91436, 16, 427, 133, -60.92308, 0
56.93536, 14, 433, 134, -60.23077, 0
56.95642, 16, 426, 133, -60.92308, 0
56.9771, 16, 424, 133, -60.92308, 0
56.99745, 16, 426, 132, -61.61538, 0
57.01389, 14, 436, 131, -62.30769, 0
57.03371, 16, 426, 129, -63.69231, 0
57.05464, 17, 426, 127, -65.07692, 0
57.07461, 16, 426, 126, -65.76923, 0
57.09729, 16, 425, 125, -66.46154, 0
57.1158, 16, 424, 125, -66.46154, 0
57.13181, 23, 424, 125, -66.46154, 0
57.15203, 16, 425, 124, -67.15385, 0
57.17287, 16, 424, 123, -67.84615, 0
57.19354, 17, 424, 122, -68.53846, 0
57.21411, 16, 425, 121, -69.23077, 0
57.23418, 16, 425, 120, -69.92308, 0
57.25053, 16, 425, 120, -69.92308, 0
57.27042, 16, 424, 119, -70.61539, 0
57.29152, 16, 426, 118, -71.30769, 0
57.31419, 17, 426, 116, -72.69231, 0
57.33223, 16, 425, 114, -74.07692, 0
57.35287, 15, 426, 113, -74.76923, 0
57.36947, 16, 425, 111, -76.15385, 0
57.38961, 17, 425, 111, -76.15385, 0
57.41054, 17, 424, 109, -77.53846, 0
57.43151, 17, 424, 111, -76.15385, 0
57.45092, 16, 426, 110, -76.84615, 0
57.47164, 16, 426, 101, -83.07692, 0
57.48822, 16, 428, 97, -85.84615, 0
57.50861, 16, 425, 104, -81, 0
57.53097, 17, 425, 102, -82.38461, 0
57.54995, 15, 428, 92, -89.30769, 0
57.57007, 16, 426, 100, -83.76923, 0
57.58619, 16, 425, 99, -84.46154, 0
57.60679, 16, 425, 96, -86.53846, 0
57.62703, 16, 424, 95, -87.23077, 0
57.64854, 17, 423, 97, -85.84615, 0
57.66828, 16, 423, 97, -85.84615, 0
57.68864, 16, 424, 91, -90, 0
57.70588, 16, 423, 95, -87.23077, 0
57.72615, 16, 424, 95, -87.23077, 0
57.74913, 16, 423, 95, -87.23077, 0
57.76715, 17, 424, 93, -88.61539, 0
57.78676, 16, 422, 89, -91.38461, 0
57.80804, 16, 423, 91, -90, 0
57.82504, 16, 422, 91, -90, 0
57.84573, 16, 422, 92, -89.30769, 0
57.86591, 17, 421, 92, -89.30769, 0
57.8866, 16, 421, 93, -88.61539, 0
57.90705, 16, 420, 94, -87.92308, 0
57.92749, 16, 419, 93, -88.61539, 0
57.94709, 16, 419, 95, -87.23077, 0
57.96578, 16, 419, 95, -87.23077, 0
57.98521, 17, 419, 94, -87.92308, 0
58.00658, 17, 418, 95, -87.23077, 0
58.02681, 17, 419, 95, -87.23077, 0
58.04683, 17, 419, 96, -86.53846, 0
58.06489, 17, 419, 96, -86.53846, 0
58.084, 17, 417, 96, -86.53846, 0
58.1048, 17, 418, 96, -86.53846, 0
58.12528, 17, 418, 96, -86.53846, 0
58.14508, 17, 418, 96, -86.53846, 0
58.167, 17, 418, 96, -86.53846, 0
58.18534, 17, 418, 96, -86.53846, 0
58.2021, 17, 418, 96, -86.53846, 0
58.22292, 17, 418, 96, -86.53846, 0
58.2432, 16, 418, 96, -86.53846, 0
58.26334, 17, 418, 96, -86.53846, 0
58.28013, 17, 419, 96, -86.53846, 0
58.29977, 17, 418, 96, -86.53846, 0
58.31999, 17, 418, 96, -86.53846, 0
58.34171, 17, 417, 96, -86.53846, 0
58.3634, 17, 417, 96, -86.53846, 0
58.38445, 17, 418, 96, -86.53846, 0
58.39988, 17, 418, 96, -86.53846, 0
58.41901, 16, 418, 96, -86.53846, 0
58.4397, 17, 418, 96, -86.53846, 0
58.45906, 17, 417, 96, -86.53846, 0
58.48031, 17, 417, 96, -86.53846, 0
58.49955, 17, 417, 96, -86.53846, 0
58.51653, 17, 417, 96, -86.53846, 0
58.53629, 17, 417, 96, -86.53846, 0
58.55803, 17, 418, 96, -86.53846, 0
58.57761, 17, 417, 96, -86.53846, 0
58.59819, 17, 417, 96, -86.53846, 0
58.61951, 17, 418, 96, -86.53846, 0
58.63715, 17, 417, 96, -86.53846, 0
58.65773, 17, 418, 96, -86.53846, 0
58.67876, 17, 418, 96, -86.53846, 0
58.69901, 17, 417, 96, -86.53846, 0
58.71809, 16, 417, 96, -86.53846, 0
58.7384, 16, 417, 96, -86.53846, 0
58.75483, 17, 418, 96, -86.53846, 0
58.77421, 16, 417, 96, -86.53846, 0
58.79485, 17, 417, 96, -86.53846, 0
58.81654, 17, 416, 96, -86.53846, 0
58.83595, 17, 417, 96, -86.53846, 0
58.85664, 17, 417, 96, -86.53846, 0
58.87293, 17, 417, 96, -86.53846, 0
58.8942, 17, 417, 96, -86.53846, 0
58.91391, 17, 417, 96, -86.53846, 0
58.93397, 17, 417, 96, -86.53846, 0
58.95465, 17, 417, 96, -86.53846, 0
58.97035, 17, 417, 96, -86.53846, 0
58.99112, 17, 417, 96, -86.53846, 0
59.01219, 17, 416, 96, -86.53846, 0
59.03339, 17, 417, 96, -86.53846, 0
59.05279, 17, 416, 96, -86.53846, 0
59.07394, 17, 416, 96, -86.53846, 0
59.08913, 16, 417, 96, -86.53846, 0
59.11015, 17, 417, 96, -86.53846, 0
59.13142, 17, 417, 96, -86.53846, 0
59.15054, 17, 416, 96, -86.53846, 0
59.17677, 17, 417, 96, -86.53846, 0
59.19705, 17, 417, 96, -86.53846, 0
59.21083, 17, 417, 96, -86.53846, 0
59.22966, 17, 416, 96, -86.53846, 0
59.24909, 17, 417, 96, -86.53846, 0
59.2697, 17, 417, 96, -86.53846, 0
59.29016, 17, 416, 96, -86.53846, 0
59.31151, 17, 417, 96, -86.53846, 0
59.32758, 17, 417, 96, -86.53846, 0
59.34763, 17, 417, 96, -86.53846, 0
59.36767, 17, 417, 96, -86.53846, 0
59.38835, 17, 417, 95, -87.23077, 0
59.4099, 17, 417, 95, -87.23077, 0
59.43188, 17, 417, 96, -86.53846, 0
59.44799, 17, 417, 95, -87.23077, 0
59.46615, 17, 417, 95, -87.23077, 0
59.48693, 17, 417, 96, -86.53846, 0
59.50693, 17, 417, 95, -87.23077, 0
59.52757, 16, 417, 96, -86.53846, 0
59.54439, 16, 417, 96, -86.53846, 0
59.56425, 17, 417, 96, -86.53846, 0
59.58494, 17, 416, 96, -86.53846, 0
59.60534, 17, 416, 96, -86.53846, 0
59.62743, 17, 417, 96, -86.53846, 0
59.64761, 17, 417, 96, -86.53846, 0
59.6637, 17, 417, 95, -87.23077, 0
59.68333, 17, 417, 95, -87.23077, 0
59.70337, 17, 417, 96, -86.53846, 0
59.72395, 17, 417, 96, -86.53846, 0
59.74635, 17, 417, 95, -87.23077, 0
59.76659, 17, 417, 95, -87.23077, 0
59.78135, 17, 417, 95, -87.23077, 0
59.8031, 16, 418, 95, -87.23077, 0
59.82417, 17, 417, 95, -87.23077, 0
59.84447, 16, 417, 95, -87.23077, 0
59.86436, 17, 417, 95, -87.23077, 0
59.88543, 17, 417, 95, -87.23077, 0
59.90097, 17, 418, 95, -87.23077, 0
59.92038, 17, 417, 95, -87.23077, 0
59.94112, 17, 418, 95, -87.23077, 0
59.96203, 17, 417, 95, -87.23077, 0
59.98378, 17, 417, 96, -86.53846, 0
60.00444, 17, 417, 95, -87.23077, 0
60.02122, 17, 417, 95, -87.23077, 0
60.04185, 17, 417, 95, -87.23077, 0
60.06209, 17, 417, 95, -87.23077, 0
60.08287, 17, 417, 95, -87.23077, 0
60.10249, 17, 417, 95, -87.23077, 0
60.12288, 16, 417, 95, -87.23077, 0
60.1406, 16, 417, 95, -87.23077, 0
60.16075, 17, 417, 95, -87.23077, 0
60.18139, 17, 417, 95, -87.23077, 0
60.19885, 17, 417, 95, -87.23077, 0
60.2198, 17, 417, 96, -86.53846, 0
60.2398, 17, 417, 96, -86.53846, 0
60.25832, 17, 417, 96, -86.53846, 0
60.28103, 17, 417, 95, -87.23077, 0
60.30006, 17, 417, 95, -87.23077, 0
60.31915, 17, 417, 95, -87.23077, 0
60.3398, 17, 417, 95, -87.23077, 0
60.35756, 17, 417, 95, -87.23077, 0
60.37731, 17, 417, 95, -87.23077, 0
60.39831, 17, 417, 95, -87.23077, 0
60.41864, 17, 417, 95, -87.23077, 0
60.43797, 17, 417, 95, -87.23077, 0
60.45861, 17, 416, 95, -87.23077, 0
60.47441, 17, 417, 95, -87.23077, 0
60.49659, 17, 417, 95, -87.23077, 0
60.51575, 17, 417, 95, -87.23077, 0
60.53967, 17, 417, 95, -87.23077, 0
60.55673, 17, 417, 95, -87.23077, 0
60.57877, 17, 417, 95, -87.23077, 0
60.59475, 17, 417, 95, -87.23077, 0
60.61513, 17, 417, 95, -87.23077, 0
60.63472, 17, 417, 95, -87.23077, 0
60.65588, 17, 417, 95, -87.23077, 0
60.67683, 17, 417, 95, -87.23077, 0
60.69706, 17, 416, 95, -87.23077, 0
60.71212, 17, 417, 95, -87.23077, 0
60.73146, 16, 417, 95, -87.23077, 0
60.75963, 17, 417, 95, -87.23077, 0
60.77262, 17, 417, 95, -87.23077, 0
60.79329, 17, 417, 95, -87.23077, 0
60.81391, 17, 417, 95, -87.23077, 0
60.8306, 17, 417, 95, -87.23077, 0
60.85033, 17, 416, 95, -87.23077, 0
60.87062, 17, 417, 95, -87.23077, 0
60.89116, 17, 416, 95, -87.23077, 0
60.91217, 17, 416, 95, -87.23077, 0
60.93213, 17, 416, 95, -87.23077, 0
60.94969, 16, 417, 95, -87.23077, 0
60.9693, 17, 417, 95, -87.23077, 0
60.98944, 17, 417, 95, -87.23077, 0
61.01004, 16, 417, 95, -87.23077, 0
61.03098, 16, 417, 95, -87.23077, 0
61.04752, 17, 416, 95, -87.23077, 0
61.06738, 17, 416, 95, -87.23077, 0
61.08788, 17, 417, 95, -87.23077, 0
61.10854, 17, 416, 95, -87.23077, 0
61.1293, 17, 416, 95, -87.23077, 0
61.14927, 17, 417, 95, -87.23077, 0
61.1663, 16, 417, 95, -87.23077, 0
61.18624, 17, 417, 95, -87.23077, 0
61.20778, 17, 417, 95, -87.23077, 0
61.22752, 17, 417, 95, -87.23077, 0
61.24786, 17, 417, 95, -87.23077, 0
61.26817, 17, 417, 95, -87.23077, 0
61.28409, 16, 417, 95, -87.23077, 0
61.30624, 16, 417, 95, -87.23077, 0
61.32632, 16, 417, 95, -87.23077, 0
61.34652, 17, 417, 95, -87.23077, 0
61.36647, 17, 417, 95, -87.23077, 0
61.38665, 17, 417, 95, -87.23077, 0
61.40339, 17, 417, 95, -87.23077, 0
61.42583, 17, 417, 95, -87.23077, 0
61.44902, 17, 415, 96, -86.53846, 0
61.46929, 16, 416, 95, -87.23077, 0
61.48713, 16, 416, 96, -86.53846, 0
61.50798, 17, 416, 95, -87.23077, 0
61.52662, 17, 416, 95, -87.23077, 0
61.54623, 16, 416, 95, -87.23077, 0
61.56683, 17, 416, 95, -87.23077, 0
61.58712, 17, 417, 95, -87.23077, 0
61.606, 17, 416, 96, -86.53846, 0
61.62768, 17, 416, 95, -87.23077, 0
61.64618, 17, 416, 95, -87.23077, 0
61.66246, 17, 416, 95, -87.23077, 0
61.68229, 17, 416, 95, -87.23077, 0
61.7038, 17, 416, 95, -87.23077, 0
61.72256, 17, 416, 95, -87.23077, 0
61.73906, 17, 416, 95, -87.23077, 0
61.7594, 17, 416, 95, -87.23077, 0
61.78097, 17, 416, 96, -86.53846, 0
61.80104, 17, 416, 95, -87.23077, 0
61.82134, 17, 416, 95, -87.23077, 0
61.84245, 17, 416, 95, -87.23077, 0
61.85975, 17, 416, 95, -87.23077, 0
61.87941, 17, 416, 95, -87.23077, 0
61.90015, 17, 417, 96, -86.53846, 0
61.92073, 17, 416, 96, -86.53846, 0
61.94113, 17, 416, 95, -87.23077, 0
61.96272, 16, 416, 95, -87.23077, 0
61.97994, 17, 416, 95, -87.23077, 0
61.99998, 17, 416, 95, -87.23077, 0
62.01963, 17, 417, 95, -87.23077, 0
62.04015, 17, 416, 95, -87.23077, 0
62.06092, 16, 416, 95, -87.23077, 0
62.0821, 17, 416, 95, -87.23077, 0
62.09851, 17, 417, 95, -87.23077, 0
62.12417, 17, 416, 95, -87.23077, 0
62.137, 17, 417, 95, -87.23077, 0
62.15733, 16, 416, 95, -87.23077, 0
62.1787, 16, 416, 95, -87.23077, 0
62.19841, 17, 416, 95, -87.23077, 0
62.21546, 16, 416, 95, -87.23077, 0
62.23507, 17, 416, 95, -87.23077, 0
62.25578, 17, 416, 95, -87.23077, 0
62.27667, 17, 416, 95, -87.23077, 0
62.29766, 17, 416, 95, -87.23077, 0
62.31686, 18, 416, 95, -87.23077, 0
62.33479, 17, 416, 95, -87.23077, 0
62.35416, 17, 416, 95, -87.23077, 0
62.37424, 17, 417, 95, -87.23077, 0
62.39553, 17, 416, 95, -87.23077, 0
62.41538, 17, 416, 95, -87.23077, 0
62.43208, 17, 416, 95, -87.23077, 0
62.45609, 17, 416, 95, -87.23077, 0
62.47372, 17, 416, 95, -87.23077, 0
62.49374, 17, 416, 96, -86.53846, 0
62.51596, 17, 416, 96, -86.53846, 0
62.53498, 17, 417, 95, -87.23077, 0
62.55138, 17, 416, 95, -87.23077, 0
62.57232, 17, 416, 95, -87.23077, 0
62.59328, 17, 416, 95, -87.23077, 0
62.61295, 17, 416, 95, -87.23077, 0
62.63221, 17, 416, 95, -87.23077, 0
62.65377, 17, 417, 95, -87.23077, 0
62.67109, 17, 416, 95, -87.23077, 0
62.68958, 17, 416, 95, -87.23077, 0
62.70985, 17, 416, 95, -87.23077, 0
62.73166, 17, 416, 95, -87.23077, 0
62.75102, 17, 416, 95, -87.23077, 0
62.7749, 17, 416, 95, -87.23077, 0
62.78873, 16, 416, 95, -87.23077, 0
62.80921, 17, 417, 95, -87.23077, 0
62.8305, 17, 417, 95, -87.23077, 0
62.85047, 17, 417, 95, -87.23077, 0
62.87128, 16, 416, 95, -87.23077, 0
62.89154, 17, 416, 96, -86.53846, 0
62.90773, 17, 417, 95, -87.23077, 0
62.92851, 16, 417, 95, -87.23077, 0
62.94945, 17, 416, 95, -87.23077, 0
62.96889, 17, 416, 95, -87.23077, 0
62.98954, 17, 416, 95, -87.23077, 0
63.00986, 17, 416, 95, -87.23077, 0
63.02818, 16, 416, 95, -87.23077, 0
63.04784, 17, 416, 95, -87.23077, 0
63.06789, 17, 416, 95, -87.23077, 0
63.08774, 17, 416, 95, -87.23077, 0
63.10791, 16, 417, 95, -87.23077, 0
63.12905, 17, 417, 95, -87.23077, 0
63.14582, 17, 416, 95, -87.23077, 0
63.1657, 17, 416, 95, -87.23077, 0
63.18435, 17, 416, 95, -87.23077, 0
63.20506, 17, 416, 95, -87.23077, 0
63.22609, 17, 416, 95, -87.23077, 0
63.2425, 17, 417, 95, -87.23077, 0
63.26355, 16, 417, 95, -87.23077, 0
63.28309, 17, 416, 95, -87.23077, 0
63.3035, 17, 416, 95, -87.23077, 0
63.32407, 17, 416, 95, -87.23077, 0
63.34512, 17, 416, 95, -87.23077, 0
63.3619, 17, 416, 95, -87.23077, 0
63.38131, 17, 417, 95, -87.23077, 0
63.40181, 16, 417, 95, -87.23077, 0
63.42187, 17, 417, 95, -87.23077, 0
63.44324, 17, 417, 95, -87.23077, 0
63.46367, 17, 417, 95, -87.23077, 0
63.47955, 17, 417, 95, -87.23077, 0
63.49989, 17, 416, 95, -87.23077, 0
63.52049, 17, 417, 95, -87.23077, 0
63.54076, 17, 416, 95, -87.23077, 0
63.56197, 17, 416, 95, -87.23077, 0
63.582, 17, 416, 95, -87.23077, 0
63.59834, 17, 416, 95, -87.23077, 0
63.61863, 17, 416, 95, -87.23077, 0
63.63926, 17, 416, 95, -87.23077, 0
63.66034, 17, 416, 95, -87.23077, 0
63.68067, 17, 416, 95, -87.23077, 0
63.70479, 16, 417, 95, -87.23077, 0
63.71926, 17, 417, 95, -87.23077, 0
63.73775, 17, 416, 95, -87.23077, 0
63.75912, 17, 417, 95, -87.23077, 0
63.77919, 16, 416, 95, -87.23077, 0
63.79911, 17, 416, 95, -87.23077, 0
63.81958, 17, 417, 95, -87.23077, 0
63.83663, 17, 417, 95, -87.23077, 0
63.85635, 17, 417, 95, -87.23077, 0
63.8774, 16, 416, 95, -87.23077, 0
63.89738, 17, 416, 95, -87.23077, 0
63.91801, 17, 416, 95, -87.23077, 0
63.93416, 17, 416, 95, -87.23077, 0
63.95465, 17, 417, 95, -87.23077, 0
63.97526, 16, 416, 95, -87.23077, 0
63.99638, 17, 416, 95, -87.23077, 0
64.01646, 17, 416, 95, -87.23077, 0
64.03665, 17, 416, 95, -87.23077, 0
64.05305, 17, 417, 95, -87.23077, 0
64.07349, 17, 416, 95, -87.23077, 0
64.09383, 17, 416, 95, -87.23077, 0
64.1144, 17, 416, 95, -87.23077, 0
64.13519, 17, 416, 95, -87.23077, 0
64.1581, 17, 417, 95, -87.23077, 0
64.17488, 17, 417, 95, -87.23077, 0
64.19459, 17, 416, 95, -87.23077, 0
64.21751, 17, 416, 95, -87.23077, 0
64.23566, 17, 416, 95, -87.23077, 0
64.25561, 17, 416, 95, -87.23077, 0
64.27721, 17, 417, 95, -87.23077, 0
64.29398, 17, 416, 95, -87.23077, 0
64.31381, 17, 416, 95, -87.23077, 0
64.33371, 17, 417, 95, -87.23077, 0
64.3542, 17, 416, 95, -87.23077, 0
64.37442, 17, 417, 95, -87.23077, 0
64.39605, 17, 416, 95, -87.23077, 0
64.41343, 17, 416, 95, -87.23077, 0
64.43266, 17, 416, 95, -87.23077, 0
64.45246, 16, 416, 95, -87.23077, 0
64.47292, 17, 416, 95, -87.23077, 0
64.49157, 17, 416, 95, -87.23077, 0
64.51279, 17, 416, 95, -87.23077, 0
64.52921, 17, 416, 95, -87.23077, 0
64.54901, 17, 416, 95, -87.23077, 0
64.56992, 17, 416, 95, -87.23077, 0
64.59051, 16, 416, 95, -87.23077, 0
64.61081, 17, 416, 95, -87.23077, 0
64.63097, 17, 415, 95, -87.23077, 0
64.64963, 16, 416, 95, -87.23077, 0
64.6677, 17, 416, 95, -87.23077, 0
64.68832, 17, 416, 95, -87.23077, 0
64.70951, 17, 416, 95, -87.23077, 0
64.72942, 17, 416, 95, -87.23077, 0
64.74664, 17, 416, 95, -87.23077, 0
64.76595, 17, 416, 95, -87.23077, 0
64.78651, 17, 415, 95, -87.23077, 0
64.8075, 17, 416, 95, -87.23077, 0
64.82938, 17, 415, 96, -86.53846, 0
64.8496, 17, 415, 96, -86.53846, 0
64.86707, 17, 414, 96, -86.53846, 0
64.88713, 17, 413, 96, -86.53846, 0
64.90748, 17, 411, 96, -86.53846, 0
64.92958, 17, 410, 96, -86.53846, 0
64.94873, 17, 408, 96, -86.53846, 0
64.96848, 17, 407, 96, -86.53846, 0
64.98548, 17, 405, 97, -85.84615, 0
65.00586, 17, 404, 96, -86.53846, 0
65.02977, 17, 402, 97, -85.84615, 0
65.04734, 17, 401, 97, -85.84615, 0
65.06766, 16, 400, 97, -85.84615, 0
65.08839, 17, 399, 97, -85.84615, 180
65.10406, 16, 406, 73, -102.4615, 180
65.12456, 16, 420, 54, -115.6154, 180
65.14555, 17, 429, 55, -114.9231, 180
65.16668, 18, 435, 60, -111.4615, 180
65.18598, 18, 437, 67, -106.6154, 180
65.20626, 16, 439, 73, -102.4615, 180
65.22475, 17, 441, 85, -94.15385, 180
65.24072, 16, 443, 91, -90, 180
65.26458, 17, 440, 98, -85.15385, 180
65.28577, 17, 437, 106, -79.61539, 180
65.30376, 16, 442, 111, -76.15385, 180
65.32333, 16, 439, 111, -76.15385, 180
65.34004, 16, 440, 121, -69.23077, 180
65.36076, 16, 440, 127, -65.07692, 180
65.38141, 16, 440, 126, -65.76923, 180
65.40123, 16, 440, 134, -60.23077, 180
65.42165, 16, 441, 137, -58.15385, 180
65.43974, 16, 440, 135, -59.53846, 180
65.45893, 15, 442, 138, -57.46154, 180
65.4798, 16, 439, 147, -51.23077, 180
65.49958, 16, 439, 148, -50.53846, 180
65.52112, 16, 438, 148, -50.53846, 180
65.54039, 16, 438, 148, -50.53846, 180
65.55702, 15, 438, 143, -54, 180
65.57779, 16, 438, 150, -49.15385, 180
65.59851, 15, 439, 148, -50.53846, 180
65.61836, 15, 439, 149, -49.84615, 180
65.63867, 15, 438, 156, -45, 180
65.66177, 16, 439, 159, -42.92308, 180
65.67833, 15, 440, 165, -38.76923, 180
65.69669, 15, 440, 169, -36, 180
65.71658, 15, 440, 167, -37.38462, 180
65.73636, 15, 441, 176, -31.15385, 180
65.75678, 15, 442, 173, -33.23077, 180
65.77752, 16, 441, 184, -25.61539, 180
65.79408, 15, 441, 189, -22.15385, 180
65.81399, 16, 439, 191, -20.76923, 180
65.83461, 16, 441, 192, -20.07692, 180
65.85504, 16, 442, 193, -19.38461, 180
65.8768, 16, 442, 195, -18, 180
65.89688, 15, 444, 190, -21.46154, 180
65.91328, 16, 440, 202, -13.15385, 180
65.93285, 16, 439, 206, -10.38461, 180
65.95336, 16, 435, 210, -7.615385, 180
65.9738, 17, 428, 211, -6.923077, 180
65.995, 16, 422, 204, -11.76923, 180
66.01476, 13, 421, 177, -30.46154, 180
66.03122, 6, 449, 155, -45.69231, 180
66.0514, 8, 468, 158, -43.61538, 0
66.07219, 18, 434, 238, 11.76923, 0
66.09408, 14, 448, 203, -12.46154, 0
66.11361, 16, 438, 190, -21.46154, 0
66.13353, 15, 440, 187, -23.53846, 0
66.14995, 16, 431, 190, -21.46154, 0
66.17073, 16, 428, 194, -18.69231, 0
66.19167, 16, 426, 197, -16.61539, 0
66.212, 17, 425, 201, -13.84615, 0
66.23189, 16, 425, 203, -12.46154, 0
66.2523, 15, 427, 193, -19.38461, 0
66.26856, 16, 425, 204, -11.76923, 0
66.29034, 16, 422, 204, -11.76923, 0
66.31367, 17, 422, 205, -11.07692, 0
66.33218, 17, 422, 207, -9.692307, 0
66.35059, 17, 421, 206, -10.38461, 0
66.37284, 16, 422, 200, -14.53846, 0
66.39061, 16, 420, 207, -9.692307, 0
66.40982, 17, 420, 207, -9.692307, 0
66.43069, 17, 419, 208, -9, 0
66.4502, 17, 419, 209, -8.307693, 0
66.47068, 17, 419, 210, -7.615385, 0
66.48933, 17, 419, 210, -7.615385, 0
66.50758, 17, 419, 210, -7.615385, 0
66.53017, 16, 419, 210, -7.615385, 0
66.54971, 17, 419, 210, -7.615385, 0
66.56995, 17, 419, 210, -7.615385, 0
66.59003, 17, 419, 210, -7.615385, 0
66.60884, 17, 419, 210, -7.615385, 0
66.62761, 17, 419, 210, -7.615385, 0
66.6491, 17, 419, 209, -8.307693, 0
66.67113, 17, 419, 210, -7.615385, 0
66.68929, 17, 419, 209, -8.307693, 0
66.70988, 17, 419, 209, -8.307693, 0
66.72712, 17, 419, 209, -8.307693, 0
66.74608, 17, 420, 209, -8.307693, 0
66.76613, 16, 419, 209, -8.307693, 0
66.78555, 17, 419, 209, -8.307693, 0
66.8058, 17, 419, 209, -8.307693, 0
66.82912, 17, 419, 209, -8.307693, 0
66.84476, 17, 419, 209, -8.307693, 0
66.86571, 17, 419, 209, -8.307693, 0
66.88413, 16, 419, 209, -8.307693, 0
66.90466, 17, 419, 209, -8.307693, 0
66.92611, 17, 419, 209, -8.307693, 0
66.94897, 17, 419, 209, -8.307693, 0
66.96304, 17, 419, 209, -8.307693, 0
66.98213, 16, 419, 209, -8.307693, 0
67.00268, 16, 419, 209, -8.307693, 0
67.02367, 17, 418, 209, -8.307693, 0
67.04458, 17, 418, 209, -8.307693, 0
67.06459, 17, 418, 209, -8.307693, 0
67.08142, 17, 418, 209, -8.307693, 0
67.10089, 17, 418, 209, -8.307693, 0
67.12204, 17, 418, 209, -8.307693, 0
67.14297, 17, 418, 209, -8.307693, 0
67.164, 17, 418, 210, -7.615385, 0
67.18379, 17, 417, 209, -8.307693, 0
67.20131, 17, 418, 209, -8.307693, 0
67.22049, 17, 417, 209, -8.307693, 0
67.24033, 17, 418, 209, -8.307693, 0
67.26143, 17, 418, 209, -8.307693, 0
67.28167, 17, 418, 209, -8.307693, 0
67.30173, 17, 417, 209, -8.307693, 0
67.31754, 17, 418, 209, -8.307693, 0
67.33858, 17, 417, 209, -8.307693, 0
67.35824, 17, 418, 209, -8.307693, 0
67.38104, 17, 417, 209, -8.307693, 0
67.39935, 17, 417, 209, -8.307693, 0
67.42116, 16, 417, 209, -8.307693, 0
67.43628, 17, 417, 209, -8.307693, 0
67.45672, 17, 417, 209, -8.307693, 0
67.47853, 17, 418, 209, -8.307693, 0
67.4985, 17, 418, 210, -7.615385, 0
67.52129, 17, 418, 210, -7.615385, 0
67.53901, 17, 418, 209, -8.307693, 0
67.55555, 17, 418, 209, -8.307693, 0
67.57628, 17, 418, 209, -8.307693, 0
67.60175, 16, 419, 209, -8.307693, 0
67.61638, 17, 418, 209, -8.307693, 0
67.63659, 16, 418, 209, -8.307693, 0
67.65877, 17, 418, 209, -8.307693, 0
67.67702, 17, 418, 209, -8.307693, 0
67.69466, 17, 418, 209, -8.307693, 0
67.71504, 17, 418, 209, -8.307693, 0
67.73513, 16, 418, 209, -8.307693, 0
67.75605, 17, 418, 209, -8.307693, 0
67.77663, 17, 418, 209, -8.307693, 0
67.79645, 16, 418, 209, -8.307693, 0
67.81362, 17, 418, 209, -8.307693, 0
67.83327, 17, 418, 209, -8.307693, 0
67.85357, 17, 419, 209, -8.307693, 0
67.87396, 17, 418, 209, -8.307693, 0
67.8962, 17, 419, 209, -8.307693, 0
67.91193, 17, 418, 209, -8.307693, 0
67.93149, 17, 418, 209, -8.307693, 0
67.95201, 17, 418, 209, -8.307693, 0
67.97262, 17, 418, 209, -8.307693, 0
67.99286, 17, 418, 209, -8.307693, 0
68.00971, 17, 418, 209, -8.307693, 0
68.03027, 17, 418, 209, -8.307693, 0
68.05074, 17, 418, 209, -8.307693, 0
68.07886, 17, 419, 209, -8.307693, 0
68.09196, 17, 418, 209, -8.307693, 0
68.11426, 16, 418, 209, -8.307693, 0
68.13104, 17, 419, 209, -8.307693, 0
68.14864, 17, 418, 209, -8.307693, 0
68.16902, 17, 419, 209, -8.307693, 0
68.18958, 17, 419, 209, -8.307693, 0
68.21086, 17, 418, 209, -8.307693, 0
68.2314, 17, 418, 209, -8.307693, 0
68.24733, 17, 418, 209, -8.307693, 0
68.2673, 17, 419, 209, -8.307693, 0
68.28799, 17, 419, 209, -8.307693, 0
68.3081, 17, 418, 209, -8.307693, 0
68.32964, 17, 418, 209, -8.307693, 0
68.34922, 17, 419, 209, -8.307693, 0
68.36617, 17, 419, 209, -8.307693, 0
68.3861, 17, 419, 209, -8.307693, 0
68.40671, 17, 419, 209, -8.307693, 0
68.42728, 16, 419, 209, -8.307693, 0
68.44786, 17, 419, 209, -8.307693, 0
68.46826, 17, 419, 209, -8.307693, 0
68.48434, 17, 418, 209, -8.307693, 0
68.50495, 17, 419, 209, -8.307693, 0
68.52699, 17, 419, 209, -8.307693, 0
68.54742, 17, 419, 209, -8.307693, 0
68.56813, 17, 419, 209, -8.307693, 0
68.58852, 17, 419, 209, -8.307693, 0
68.60556, 17, 419, 209, -8.307693, 0
68.62534, 17, 419, 209, -8.307693, 0
68.64606, 17, 419, 209, -8.307693, 0
68.66576, 16, 419, 209, -8.307693, 0
68.6867, 17, 418, 209, -8.307693, 0
68.707, 17, 419, 209, -8.307693, 0
68.72475, 17, 419, 209, -8.307693, 0
68.74333, 17, 419, 209, -8.307693, 0
68.76333, 17, 420, 209, -8.307693, 0
68.78392, 17, 419, 209, -8.307693, 0
68.80375, 17, 419, 209, -8.307693, 0
68.82423, 17, 419, 209, -8.307693, 0
68.84127, 17, 419, 208, -9, 0
68.86196, 17, 419, 209, -8.307693, 0
68.8817, 17, 420, 209, -8.307693, 0
68.90307, 16, 419, 209, -8.307693, 0
68.92392, 17, 419, 209, -8.307693, 0
68.94363, 17, 419, 209, -8.307693, 0
68.96189, 17, 419, 208, -9, 0
68.98064, 17, 419, 208, -9, 0
69.00049, 17, 420, 209, -8.307693, 0
69.02097, 16, 419, 209, -8.307693, 0
69.04463, 17, 419, 209, -8.307693, 0
69.06623, 17, 419, 209, -8.307693, 0
69.08313, 17, 419, 208, -9, 0
69.1002, 17, 420, 208, -9, 0
69.12156, 17, 419, 208, -9, 0
69.14024, 17, 419, 209, -8.307693, 0
69.16669, 17, 419, 209, -8.307693, 0
69.18077, 17, 419, 209, -8.307693, 0
69.19755, 17, 420, 209, -8.307693, 0
69.21801, 17, 420, 208, -9, 0
69.23807, 17, 419, 209, -8.307693, 0
69.25851, 17, 419, 209, -8.307693, 0
69.28249, 17, 419, 209, -8.307693, 0
69.30058, 17, 419, 209, -8.307693, 0
69.31673, 17, 420, 209, -8.307693, 0
69.33632, 17, 420, 209, -8.307693, 0
69.35707, 17, 420, 209, -8.307693, 0
69.37731, 17, 419, 209, -8.307693, 0
69.39804, 17, 419, 209, -8.307693, 0
69.41868, 17, 419, 209, -8.307693, 0
69.43465, 16, 419, 209, -8.307693, 0
69.4556, 17, 419, 208, -9, 0
69.47621, 17, 419, 209, -8.307693, 0
69.49709, 17, 420, 209, -8.307693, 0
69.51647, 17, 420, 209, -8.307693, 0
69.53722, 17, 420, 209, -8.307693, 0
69.55363, 16, 420, 209, -8.307693, 0
69.57397, 17, 420, 209, -8.307693, 0
69.59507, 17, 420, 209, -8.307693, 0
69.61505, 17, 420, 209, -8.307693, 0
69.63592, 17, 420, 209, -8.307693, 0
69.65173, 16, 420, 208, -9, 0
69.6739, 17, 420, 208, -9, 0
69.69295, 17, 420, 208, -9, 0
69.7141, 17, 420, 209, -8.307693, 0
69.73575, 17, 420, 209, -8.307693, 0
69.7541, 17, 420, 209, -8.307693, 0
69.77085, 17, 420, 208, -9, 0
69.79106, 17, 420, 208, -9, 0
69.81297, 17, 420, 208, -9, 0
69.83202, 17, 420, 209, -8.307693, 0
69.85237, 17, 420, 209, -8.307693, 0
69.87292, 17, 420, 209, -8.307693, 0
69.8895, 17, 420, 208, -9, 0
69.90984, 17, 420, 208, -9, 0
69.93048, 17, 420, 208, -9, 0
69.95147, 17, 420, 209, -8.307693, 0
69.9712, 17, 420, 208, -9, 0
69.99146, 17, 420, 208, -9, 0
70.00822, 17, 421, 208, -9, 0
70.03097, 17, 421, 208, -9, 0
70.05137, 17, 421, 208, -9, 0
70.07148, 17, 421, 208, -9, 0
70.09187, 17, 421, 208, -9, 0
70.11261, 17, 422, 208, -9, 0
70.1301, 17, 423, 207, -9.692307, 0
70.14997, 17, 423, 205, -11.07692, 0
70.17136, 17, 423, 203, -12.46154, 0
70.19031, 17, 423, 204, -11.76923, 0
70.21079, 16, 423, 204, -11.76923, 0
70.23243, 17, 423, 205, -11.07692, 0
70.24768, 17, 423, 205, -11.07692, 0
70.26803, 17, 423, 203, -12.46154, 0
70.28876, 17, 424, 205, -11.07692, 0
70.30965, 16, 423, 204, -11.76923, 0
70.32992, 17, 424, 202, -13.15385, 0
70.35072, 16, 424, 201, -13.84615, 0
70.36771, 17, 424, 199, -15.23077, 0
70.38816, 16, 423, 199, -15.23077, 0
70.4072, 16, 423, 198, -15.92308, 0
70.42847, 17, 423, 199, -15.23077, 0
70.44962, 17, 422, 198, -15.92308, 0
70.46935, 17, 422, 200, -14.53846, 0
70.48596, 17, 422, 200, -14.53846, 0
70.5061, 17, 422, 200, -14.53846, 0
70.52876, 16, 428, 205, -11.07692, 0
70.54765, 17, 421, 201, -13.84615, 0
70.56789, 17, 421, 202, -13.15385, 0
70.58953, 17, 422, 202, -13.15385, 0
70.60507, 17, 422, 202, -13.15385, 0
70.62515, 16, 422, 202, -13.15385, 0
70.64548, 16, 422, 202, -13.15385, 0
70.66731, 17, 422, 202, -13.15385, 0
70.68713, 17, 423, 202, -13.15385, 0
70.70428, 17, 423, 202, -13.15385, 0
70.72086, 16, 423, 202, -13.15385, 0
70.74158, 16, 424, 200, -14.53846, 0
70.76241, 16, 428, 193, -19.38461, 0
70.78215, 16, 424, 196, -17.30769, 0
70.8039, 16, 424, 194, -18.69231, 0
70.82306, 16, 423, 190, -21.46154, 0
70.83976, 16, 425, 191, -20.76923, 0
70.86024, 16, 423, 190, -21.46154, 0
70.88052, 17, 424, 190, -21.46154, 0
70.9009, 16, 424, 188, -22.84615, 0
70.92126, 16, 424, 187, -23.53846, 0
70.94171, 17, 424, 186, -24.23077, 0
70.95835, 16, 424, 184, -25.61539, 0
70.97977, 17, 424, 184, -25.61539, 0
70.99919, 25, 424, 185, -24.92308, 0
71.02073, 17, 425, 187, -23.53846, 0
71.04005, 17, 425, 186, -24.23077, 0
71.05656, 16, 426, 183, -26.30769, 0
71.07735, 14, 436, 181, -27.69231, 0
71.0976, 17, 426, 178, -29.76923, 0
71.11826, 17, 425, 175, -31.84615, 0
71.13869, 14, 433, 178, -29.76923, 0
71.15884, 15, 428, 167, -37.38462, 0
71.17613, 16, 426, 172, -33.92308, 0
71.19695, 16, 426, 172, -33.92308, 0
71.21616, 16, 426, 171, -34.61538, 0
71.23785, 17, 424, 172, -33.92308, 0
71.25763, 16, 424, 171, -34.61538, 0
71.27846, 17, 424, 169, -36, 0
71.29523, 16, 424, 168, -36.69231, 0
71.31472, 17, 424, 171, -34.61538, 0
71.33613, 17, 426, 171, -34.61538, 0
71.35609, 16, 427, 168, -36.69231, 0
71.37647, 16, 429, 163, -40.15385, 0
71.3972, 16, 430, 158, -43.61538, 0
71.41692, 16, 432, 153, -47.07692, 0
71.43703, 16, 433, 148, -50.53846, 0
71.45618, 15, 435, 138, -57.46154, 0
71.47737, 16, 433, 138, -57.46154, 0
71.49767, 16, 434, 135, -59.53846, 0
71.51855, 14, 441, 133, -60.92308, 0
71.5338, 16, 433, 128, -64.38461, 0
71.55412, 15, 436, 120, -69.92308, 0
71.57471, 15, 434, 119, -70.61539, 0
71.59568, 15, 431, 122, -68.53846, 0
71.61745, 16, 432, 120, -69.92308, 0
71.63786, 23, 432, 118, -71.30769, 0
71.65365, 16, 432, 113, -74.76923, 0
71.67305, 15, 432, 112, -75.46154, 0
71.69473, 16, 431, 109, -77.53846, 0
71.71373, 15, 432, 108, -78.23077, 0
71.73296, 16, 432, 106, -79.61539, 0
71.75336, 15, 433, 97, -85.84615, 0
71.7702, 23, 430, 101, -83.07692, 0
71.78961, 16, 430, 99, -84.46154, 0
71.81037, 16, 431, 99, -84.46154, 0
71.8306, 16, 431, 95, -87.23077, 0
71.85191, 15, 434, 87, -92.76923, 0
71.87143, 16, 431, 86, -93.46154, 0
71.88843, 15, 432, 82, -96.23077, 0
71.90836, 16, 429, 85, -94.15385, 0
71.92973, 16, 430, 85, -94.15385, 0
71.94936, 16, 429, 84, -94.84615, 0
71.9698, 16, 429, 83, -95.53846, 0
71.98611, 16, 429, 81, -96.92308, 0
72.00969, 16, 428, 80, -97.61539, 0
72.02739, 16, 428, 80, -97.61539, 0
72.04753, 16, 426, 80, -97.61539, 0
72.07049, 16, 424, 83, -95.53846, 0
72.09089, 17, 426, 84, -94.84615, 0
72.10783, 16, 427, 84, -94.84615, 0
72.12781, 16, 426, 84, -94.84615, 0
72.14913, 17, 426, 84, -94.84615, 0
72.16869, 17, 426, 83, -95.53846, 0
72.18936, 17, 426, 83, -95.53846, 0
72.21022, 16, 426, 84, -94.84615, 0
72.22663, 16, 428, 76, -100.3846, 0
72.24758, 16, 424, 85, -94.15385, 0
72.26553, 16, 423, 87, -92.76923, 0
72.28709, 17, 421, 88, -92.07692, 0
72.3067, 17, 419, 88, -92.07692, 0
72.32701, 17, 418, 88, -92.07692, 0
72.34451, 17, 417, 88, -92.07692, 0
72.36455, 17, 416, 88, -92.07692, 0
72.38392, 16, 414, 88, -92.07692, 0
72.40441, 17, 412, 88, -92.07692, 0
72.42514, 17, 409, 88, -92.07692, 0
72.4473, 17, 408, 89, -91.38461, 0
72.46252, 18, 403, 99, -84.46154, 0
72.48238, 17, 403, 91, -90, 0
72.50457, 17, 401, 91, -90, 0
72.52306, 16, 398, 93, -88.61539, 180
72.54405, 16, 402, 75, -101.0769, 180
72.56458, 14, 421, 47, -120.4615, 180
72.58297, 17, 431, 48, -119.7692, 180
72.60331, 19, 436, 53, -116.3077, 180
72.62392, 19, 440, 61, -110.7692, 180
72.64492, 18, 442, 70, -104.5385, 180
72.66567, 18, 442, 79, -98.30769, 180
72.68168, 17, 441, 87, -92.76923, 180
72.70184, 17, 439, 93, -88.61539, 180
72.72466, 16, 440, 98, -85.15385, 180
72.74075, 17, 439, 101, -83.07692, 180
72.76097, 16, 440, 103, -81.69231, 180
72.7808, 16, 440, 106, -79.61539, 180
72.79748, 16, 440, 113, -74.76923, 180
72.81751, 16, 440, 117, -72, 180
72.83816, 16, 441, 120, -69.92308, 180
72.85846, 16, 440, 124, -67.15385, 180
72.88006, 15, 441, 124, -67.15385, 180
72.89956, 14, 443, 127, -65.07692, 180
72.91615, 16, 441, 126, -65.76923, 180
72.93745, 16, 440, 135, -59.53846, 180
72.95947, 16, 440, 137, -58.15385, 180
72.98302, 15, 440, 139, -56.76923, 180
72.99985, 16, 439, 146, -51.92308, 180
73.01936, 16, 439, 148, -50.53846, 180
73.03841, 17, 440, 149, -49.84615, 180
73.05807, 16, 440, 151, -48.46154, 180
73.07745, 17, 440, 154, -46.38462, 180
73.09895, 16, 441, 155, -45.69231, 180
73.11852, 16, 440, 159, -42.92308, 180
73.13916, 16, 440, 161, -41.53846, 180
73.15586, 15, 439, 160, -42.23077, 180
73.1755, 16, 440, 164, -39.46154, 180
73.19675, 16, 440, 165, -38.76923, 180
73.216, 16, 442, 168, -36.69231, 180
73.23882, 16, 441, 171, -34.61538, 180
73.25833, 16, 440, 176, -31.15385, 180
73.27413, 16, 440, 179, -29.07692, 180
73.29493, 16, 440, 181, -27.69231, 180
73.31637, 17, 441, 182, -27, 180
73.3358, 16, 440, 181, -27.69231, 180
73.35656, 16, 441, 182, -27, 180
73.37606, 16, 439, 181, -27.69231, 180
73.39289, 16, 441, 184, -25.61539, 180
73.41382, 16, 442, 186, -24.23077, 180
73.43222, 16, 442, 189, -22.15385, 180
73.45321, 15, 445, 189, -22.15385, 180
73.47333, 17, 442, 197, -16.61539, 180
73.4895, 16, 440, 201, -13.84615, 180
73.51003, 16, 441, 205, -11.07692, 180
73.53063, 17, 440, 207, -9.692307, 180
73.55228, 17, 440, 207, -9.692307, 180
73.57347, 17, 440, 209, -8.307693, 180
73.59184, 17, 440, 208, -9, 180
73.60939, 17, 439, 210, -7.615385, 180
73.63032, 17, 439, 210, -7.615385, 180
73.64912, 17, 438, 210, -7.615385, 180
73.67111, 17, 439, 209, -8.307693, 180
73.69011, 17, 439, 207, -9.692307, 180
73.71278, 17, 440, 206, -10.38461, 180
73.73075, 16, 440, 206, -10.38461, 180
73.74762, 16, 439, 206, -10.38461, 180
73.76907, 16, 441, 205, -11.07692, 180
73.78976, 17, 441, 207, -9.692307, 180
73.80968, 16, 442, 209, -8.307693, 180
73.83017, 14, 442, 209, -8.307693, 180
73.84834, 17, 443, 210, -7.615385, 180
73.86656, 17, 443, 211, -6.923077, 180
73.88731, 17, 443, 211, -6.923077, 180
73.90767, 17, 443, 212, -6.230769, 180
73.92822, 17, 443, 212, -6.230769, 180
73.94815, 17, 444, 212, -6.230769, 180
73.96469, 16, 444, 211, -6.923077, 180
73.98532, 17, 443, 211, -6.923077, 180
74.00675, 16, 445, 211, -6.923077, 180
74.02617, 17, 444, 211, -6.923077, 180
74.0484, 17, 444, 212, -6.230769, 180
74.06747, 17, 444, 212, -6.230769, 180
74.08319, 17, 443, 211, -6.923077, 180
74.10403, 17, 444, 212, -6.230769, 180
74.12449, 17, 443, 212, -6.230769, 180
74.14617, 17, 442, 212, -6.230769, 180
74.16568, 17, 442, 212, -6.230769, 180
74.18637, 17, 442, 212, -6.230769, 180
74.2032, 17, 441, 212, -6.230769, 180
74.22251, 17, 441, 212, -6.230769, 180
74.24305, 16, 441, 212, -6.230769, 180
74.26402, 17, 441, 212, -6.230769, 180
74.2847, 17, 440, 212, -6.230769, 180
74.30549, 17, 441, 212, -6.230769, 180
74.32063, 17, 440, 212, -6.230769, 180
74.34131, 17, 440, 212, -6.230769, 180
74.36262, 17, 440, 212, -6.230769, 180
74.38243, 17, 442, 212, -6.230769, 180
74.40295, 17, 442, 212, -6.230769, 180
74.42418, 17, 442, 212, -6.230769, 180
74.44006, 17, 440, 211, -6.923077, 180
74.4603, 17, 440, 211, -6.923077, 180
74.48053, 16, 438, 208, -9, 180
74.50129, 15, 438, 197, -16.61539, 180
74.52135, 12, 450, 167, -37.38462, 180
74.54179, 8, 496, 211, -6.923077, 0
74.55898, 17, 450, 208, -9, 0
74.57996, 16, 456, 179, -29.07692, 0
74.59956, 21, 456, 151, -48.46154, 0
74.62, 18, 455, 140, -56.07692, 0
74.64118, 19, 451, 134, -60.23077, 0
74.66086, 18, 450, 130, -63, 0
74.67841, 17, 445, 126, -65.76923, 0
74.69754, 17, 441, 126, -65.76923, 0
74.71947, 16, 440, 127, -65.07692, 0
74.73991, 16, 442, 133, -60.92308, 0
74.75999, 20, 433, 131, -62.30769, 0
74.78081, 16, 433, 129, -63.69231, 0
74.79653, 16, 433, 127, -65.07692, 0
74.81675, 16, 431, 128, -64.38461, 0
74.83724, 16, 434, 121, -69.23077, 0
74.85963, 16, 431, 124, -67.15385, 0
74.87927, 15, 436, 120, -69.92308, 0
74.89536, 15, 431, 120, -69.92308, 0
74.91489, 20, 432, 116, -72.69231, 0
74.9366, 16, 432, 112, -75.46154, 0
74.95667, 16, 433, 106, -79.61539, 0
74.97639, 15, 434, 103, -81.69231, 0
74.99741, 16, 433, 102, -82.38461, 0
75.01317, 15, 439, 101, -83.07692, 0
75.03347, 16, 433, 96, -86.53846, 0
75.05463, 15, 433, 95, -87.23077, 0
75.07656, 15, 432, 92, -89.30769, 0
75.09672, 21, 431, 91, -90, 0
75.11662, 15, 435, 85, -94.15385, 0
75.13173, 15, 434, 80, -97.61539, 0
75.15218, 15, 435, 86, -93.46154, 0
75.17287, 16, 432, 77, -99.69231, 0
75.19347, 16, 431, 80, -97.61539, 0
75.21397, 16, 430, 79, -98.30769, 0
75.23404, 16, 428, 78, -99, 0
75.25075, 22, 425, 78, -99, 0
75.27131, 17, 423, 82, -96.23077, 0
75.29276, 16, 424, 80, -97.61539, 0
75.31319, 17, 421, 90, -90.69231, 0
75.33251, 17, 420, 92, -89.30769, 0
75.35296, 17, 421, 93, -88.61539, 0
75.3699, 17, 421, 93, -88.61539, 0
75.39017, 17, 421, 93, -88.61539, 0
75.41089, 17, 421, 93, -88.61539, 0
75.4307, 17, 421, 93, -88.61539, 0
75.4515, 17, 421, 93, -88.61539, 0
75.47176, 17, 422, 93, -88.61539, 0
75.489, 17, 423, 92, -89.30769, 0
75.50861, 16, 423, 90, -90.69231, 0
75.53008, 16, 423, 88, -92.07692, 0
75.55025, 17, 422, 88, -92.07692, 0
75.57099, 17, 421, 89, -91.38461, 0
75.58665, 17, 421, 90, -90.69231, 0
75.60759, 16, 421, 90, -90.69231, 0
75.62804, 17, 421, 90, -90.69231, 0
75.64794, 17, 421, 91, -90, 0
75.6683, 17, 421, 91, -90, 0
75.68884, 17, 421, 91, -90, 0
75.70638, 17, 421, 91, -90, 0
75.72693, 17, 421, 91, -90, 0
75.74839, 17, 421, 91, -90, 0
75.76788, 17, 421, 91, -90, 0
75.78715, 17, 421, 91, -90, 0
75.80827, 17, 420, 91, -90, 0
75.82566, 17, 421, 91, -90, 0
75.84551, 17, 420, 91, -90, 0
75.86526, 17, 421, 91, -90, 0
75.88685, 17, 420, 91, -90, 0
75.90572, 17, 420, 91, -90, 0
75.92768, 17, 420, 91, -90, 0
75.9443, 17, 420, 91, -90, 0
75.96394, 16, 420, 91, -90, 0
75.9838, 16, 420, 91, -90, 0
76.00401, 16, 420, 91, -90, 0
76.02457, 16, 421, 91, -90, 0
76.04648, 16, 420, 91, -90, 0
76.06277, 17, 421, 91, -90, 0
76.08215, 17, 421, 91, -90, 0
76.10346, 17, 420, 91, -90, 0
76.1228, 17, 421, 91, -90, 0
76.14992, 17, 421, 91, -90, 0
76.16586, 17, 420, 91, -90, 0
76.18144, 16, 420, 91, -90, 0
76.20071, 17, 420, 91, -90, 0
76.22133, 17, 421, 91, -90, 0
76.2417, 17, 421, 91, -90, 0
76.26286, 17, 422, 91, -90, 0
76.2796, 17, 421, 91, -90, 0
76.29897, 17, 421, 91, -90, 0
76.31952, 17, 420, 91, -90, 0
76.34033, 17, 421, 91, -90, 0
76.3623, 17, 420, 91, -90, 0
76.38078, 17, 420, 91, -90, 0
76.39755, 17, 420, 91, -90, 0
76.41757, 17, 420, 91, -90, 0
76.4382, 17, 421, 91, -90, 0
76.45869, 17, 421, 91, -90, 0
76.48003, 17, 421, 91, -90, 0
76.49977, 17, 421, 91, -90, 0
76.51628, 17, 421, 91, -90, 0
76.53637, 17, 421, 91, -90, 0
76.55713, 17, 421, 91, -90, 0
76.57841, 17, 421, 91, -90, 0
76.59794, 17, 421, 91, -90, 0
76.61838, 17, 421, 91, -90, 0
76.63759, 17, 422, 91, -90, 0
76.6576, 17, 422, 91, -90, 0
76.67902, 17, 422, 91, -90, 0
76.69917, 17, 421, 91, -90, 0
76.71962, 17, 421, 91, -90, 0
76.74002, 17, 422, 91, -90, 0
76.75925, 17, 421, 91, -90, 0
76.77816, 17, 421, 91, -90, 0
76.79629, 17, 421, 91, -90, 0
76.81538, 17, 420, 91, -90, 0
76.83626, 17, 421, 91, -90, 0
76.85651, 17, 420, 91, -90, 0
76.87238, 17, 421, 91, -90, 0
76.89361, 17, 421, 91, -90, 0
76.91413, 17, 421, 91, -90, 0
76.93391, 16, 421, 91, -90, 0
76.95611, 17, 422, 91, -90, 0
76.97349, 16, 421, 91, -90, 0
76.99369, 16, 422, 91, -90, 0
77.016, 17, 422, 91, -90, 0
77.03404, 17, 422, 91, -90, 0
77.05567, 16, 421, 91, -90, 0
77.07632, 17, 421, 91, -90, 0
77.09123, 16, 422, 91, -90, 0
77.11179, 17, 421, 91, -90, 0
77.13168, 17, 421, 91, -90, 0
77.15289, 17, 421, 91, -90, 0
77.17249, 17, 421, 91, -90, 0
77.1943, 17, 421, 91, -90, 0
77.21057, 17, 421, 91, -90, 0
77.2308, 17, 420, 91, -90, 0
77.25018, 17, 421, 91, -90, 0
77.27108, 17, 420, 91, -90, 0
77.29055, 17, 420, 91, -90, 0
77.31245, 17, 420, 91, -90, 0
77.32867, 17, 420, 91, -90, 0
77.34904, 17, 420, 91, -90, 0
77.36958, 17, 420, 91, -90, 0
77.38905, 17, 420, 91, -90, 0
77.4099, 16, 419, 91, -90, 0
77.43154, 17, 420, 91, -90, 0
77.44855, 17, 420, 91, -90, 0
77.46763, 17, 419, 91, -90, 0
77.48673, 17, 419, 91, -90, 0
77.50732, 17, 419, 91, -90, 0
77.52832, 17, 419, 91, -90, 0
77.5481, 17, 419, 91, -90, 0
77.56517, 17, 420, 91, -90, 0
77.58537, 17, 419, 91, -90, 0
77.60593, 17, 419, 91, -90, 0
77.62628, 16, 419, 91, -90, 0
77.64883, 17, 419, 91, -90, 0
77.66692, 17, 419, 91, -90, 0
77.68334, 17, 419, 91, -90, 0
77.70373, 17, 420, 91, -90, 0
77.72495, 17, 420, 91, -90, 0
77.7465, 17, 419, 91, -90, 0
77.76563, 17, 419, 91, -90, 0
77.78237, 17, 420, 91, -90, 0
77.80225, 17, 419, 91, -90, 0
77.82257, 17, 420, 91, -90, 0
77.84312, 18, 419, 91, -90, 0
77.86397, 17, 419, 91, -90, 0
77.88393, 17, 420, 91, -90, 0
77.90054, 17, 420, 91, -90, 0
77.92075, 17, 420, 91, -90, 0
77.94131, 17, 420, 91, -90, 0
77.96262, 17, 419, 91, -90, 0
77.98222, 17, 420, 91, -90, 0
78.00286, 17, 420, 91, -90, 0
78.0192, 17, 420, 91, -90, 0
78.03968, 17, 420, 91, -90, 0
78.06077, 17, 420, 92, -89.30769, 0
78.08168, 16, 420, 91, -90, 0
78.10168, 17, 419, 91, -90, 0
78.12208, 17, 420, 91, -90, 0
78.13881, 17, 420, 91, -90, 0
78.15997, 17, 420, 91, -90, 0
78.18014, 17, 420, 91, -90, 0
78.19991, 17, 420, 91, -90, 0
78.22047, 17, 420, 91, -90, 0
78.24077, 17, 420, 91, -90, 0
78.25732, 17, 419, 91, -90, 0
78.27803, 17, 418, 91, -90, 0
78.29829, 17, 418, 91, -90, 0
78.3186, 17, 418, 91, -90, 0
78.33894, 17, 418, 91, -90, 0
78.35971, 17, 418, 91, -90, 0
78.37714, 17, 418, 91, -90, 0
78.39755, 17, 419, 91, -90, 0
78.41733, 17, 418, 92, -89.30769, 0
78.43745, 17, 418, 92, -89.30769, 0
78.45761, 17, 418, 91, -90, 0
78.47451, 17, 418, 91, -90, 0
78.49566, 17, 418, 91, -90, 0
78.51571, 17, 418, 91, -90, 0
78.53671, 17, 418, 91, -90, 0
78.55643, 17, 419, 91, -90, 0
78.57682, 17, 419, 91, -90, 0
78.5943, 17, 419, 91, -90, 0
78.61729, 17, 419, 91, -90, 0
78.64332, 16, 419, 91, -90, 0
78.65762, 17, 418, 91, -90, 0
78.67516, 17, 418, 91, -90, 0
78.69749, 17, 419, 91, -90, 0
78.71376, 17, 418, 91, -90, 0
78.73282, 17, 419, 91, -90, 0
78.75251, 16, 419, 91, -90, 0
78.77314, 17, 419, 91, -90, 0
78.7935, 17, 418, 91, -90, 0
78.81514, 17, 419, 91, -90, 0
78.83077, 17, 418, 91, -90, 0
78.85075, 17, 418, 91, -90, 0
78.87129, 17, 418, 91, -90, 0
78.89143, 17, 420, 91, -90, 0
78.91285, 17, 419, 91, -90, 0
78.93291, 17, 419, 91, -90, 0
78.94922, 17, 419, 91, -90, 0
78.96919, 17, 419, 91, -90, 0
78.98984, 17, 419, 91, -90, 0
79.0107, 17, 419, 91, -90, 0
79.03081, 17, 419, 91, -90, 0
79.05151, 17, 419, 91, -90, 0
79.06794, 17, 419, 91, -90, 0
79.08816, 17, 419, 91, -90, 0
79.10862, 17, 420, 91, -90, 0
79.12999, 17, 419, 91, -90, 0
79.14961, 17, 419, 91, -90, 0
79.16621, 17, 418, 91, -90, 0
79.18725, 17, 419, 91, -90, 0
79.20749, 17, 418, 91, -90, 0
79.22758, 17, 419, 91, -90, 0
79.24822, 17, 419, 91, -90, 0
79.26886, 17, 419, 91, -90, 0
79.28496, 17, 419, 91, -90, 0
79.30587, 17, 418, 91, -90, 0
79.32669, 17, 418, 91, -90, 0
79.34736, 17, 418, 91, -90, 0
79.36729, 17, 419, 91, -90, 0
79.38725, 17, 419, 91, -90, 0
79.40372, 17, 419, 91, -90, 0
79.42417, 17, 419, 91, -90, 0
79.44559, 17, 419, 91, -90, 0
79.46532, 17, 419, 91, -90, 0
79.48664, 17, 419, 91, -90, 0
79.50618, 17, 418, 91, -90, 0
79.52244, 17, 418, 91, -90, 0
79.54306, 17, 418, 91, -90, 0
79.56389, 17, 418, 91, -90, 0
79.58393, 17, 418, 91, -90, 0
79.6051, 16, 418, 91, -90, 0
79.62488, 17, 419, 91, -90, 0
79.64119, 17, 418, 91, -90, 0
79.66579, 17, 418, 91, -90, 0
79.68545, 17, 418, 91, -90, 0
79.70651, 17, 417, 91, -90, 0
79.72371, 17, 417, 91, -90, 0
79.74569, 17, 417, 91, -90, 0
79.76244, 17, 417, 91, -90, 0
79.78584, 17, 417, 91, -90, 0
79.80109, 17, 417, 91, -90, 0
79.82132, 17, 416, 91, -90, 0
79.84195, 17, 415, 91, -90, 0
79.85884, 17, 415, 91, -90, 0
79.87968, 17, 415, 91, -90, 0
79.89984, 17, 414, 92, -89.30769, 0
79.91966, 17, 414, 92, -89.30769, 0
79.93995, 17, 414, 92, -89.30769, 0
79.9606, 17, 413, 92, -89.30769, 0
79.97764, 17, 413, 92, -89.30769, 0
79.99751, 17, 414, 92, -89.30769, 0
80.01879, 17, 413, 92, -89.30769, 0
80.03843, 17, 413, 92, -89.30769, 0
80.06614, 17, 412, 92, -89.30769, 0
80.07985, 17, 413, 92, -89.30769, 0
80.09676, 17, 413, 92, -89.30769, 0
80.1161, 17, 413, 92, -89.30769, 0
80.13692, 17, 413, 92, -89.30769, 0
80.15723, 17, 412, 92, -89.30769, 0
80.17857, 17, 412, 92, -89.30769, 0
80.19909, 17, 412, 92, -89.30769, 0
80.21708, 17, 412, 92, -89.30769, 0
80.23757, 17, 411, 93, -88.61539, 0
80.25786, 18, 411, 93, -88.61539, 0
80.27977, 17, 410, 93, -88.61539, 0
80.30002, 16, 410, 93, -88.61539, 0
80.3199, 17, 409, 94, -87.92308, 0
80.33695, 17, 409, 93, -88.61539, 0
80.35746, 17, 409, 93, -88.61539, 0
80.37754, 16, 409, 93, -88.61539, 0
80.3984, 17, 409, 93, -88.61539, 0
80.41763, 17, 408, 93, -88.61539, 0
80.44019, 17, 408, 93, -88.61539, 0
80.45713, 17, 408, 93, -88.61539, 0
80.47281, 17, 408, 93, -88.61539, 0
80.49344, 17, 409, 93, -88.61539, 0
80.51386, 17, 408, 93, -88.61539, 0
80.5348, 17, 409, 93, -88.61539, 0
80.55099, 17, 409, 93, -88.61539, 0
80.5713, 17, 409, 93, -88.61539, 0
80.59204, 17, 408, 93, -88.61539, 0
80.61308, 18, 408, 93, -88.61539, 0
80.63297, 17, 407, 92, -89.30769, 0
80.6543, 17, 408, 92, -89.30769, 0
80.67014, 17, 407, 92, -89.30769, 0
80.69017, 17, 407, 92, -89.30769, 0
80.71082, 17, 407, 92, -89.30769, 0
80.7313, 17, 408, 92, -89.30769, 0
80.75178, 16, 408, 93, -88.61539, 0
80.77288, 16, 408, 92, -89.30769, 0
80.78985, 17, 408, 92, -89.30769, 0
80.80846, 16, 406, 92, -89.30769, 0
80.82999, 17, 406, 93, -88.61539, 0
80.84978, 17, 406, 93, -88.61539, 0
80.87075, 17, 406, 93, -88.61539, 0
80.89024, 17, 406, 93, -88.61539, 0
80.90678, 17, 406, 92, -89.30769, 0
80.9276, 17, 406, 92, -89.30769, 0
80.94772, 17, 406, 92, -89.30769, 0
80.96869, 16, 406, 92, -89.30769, 0
80.98934, 17, 406, 93, -88.61539, 0
81.0097, 17, 405, 92, -89.30769, 0
81.02773, 17, 404, 92, -89.30769, 0
81.04753, 18, 404, 93, -88.61539, 0
81.06704, 17, 403, 93, -88.61539, 0
81.08786, 17, 401, 93, -88.61539, 0
81.10817, 17, 399, 93, -88.61539, 180
81.12924, 17, 395, 89, -91.38461, 180
81.14671, 15, 415, 57, -113.5385, 180
81.16545, 16, 429, 51, -117.6923, 180
81.18674, 17, 435, 56, -114.2308, 180
81.20973, 17, 444, 64, -108.6923, 180
81.22718, 17, 439, 73, -102.4615, 180
81.247, 17, 440, 81, -96.92308, 180
81.26409, 16, 447, 90, -90.69231, 180
81.28358, 17, 442, 99, -84.46154, 180
81.30518, 16, 442, 105, -80.30769, 180
81.32465, 17, 440, 108, -78.23077, 180
81.34632, 17, 440, 111, -76.15385, 180
81.36255, 17, 439, 113, -74.76923, 180
81.382, 16, 439, 114, -74.07692, 180
81.40234, 15, 440, 109, -77.53846, 180
81.42281, 23, 437, 118, -71.30769, 180
81.44376, 16, 437, 120, -69.92308, 180
81.4642, 17, 439, 121, -69.23077, 180
81.4803, 16, 439, 123, -67.84615, 180
81.50062, 16, 439, 126, -65.76923, 180
81.52226, 15, 438, 124, -67.15385, 180
81.5414, 16, 438, 131, -62.30769, 180
81.56315, 16, 437, 132, -61.61538, 180
81.58262, 16, 439, 137, -58.15385, 180
81.59964, 16, 439, 138, -57.46154, 180
81.61939, 16, 440, 133, -60.92308, 180
81.6399, 16, 439, 142, -54.69231, 180
81.66104, 16, 438, 147, -51.23077, 180
81.68086, 16, 438, 152, -47.76923, 180
81.70147, 16, 439, 153, -47.07692, 180
81.71861, 14, 448, 155, -45.69231, 180
81.73959, 16, 439, 156, -45, 180
81.75945, 16, 439, 159, -42.92308, 180
81.78036, 17, 439, 162, -40.84615, 180
81.80011, 16, 438, 164, -39.46154, 180
81.82047, 16, 437, 162, -40.84615, 180
81.83732, 17, 437, 165, -38.76923, 180
81.85737, 16, 438, 168, -36.69231, 180
81.87881, 17, 439, 169, -36, 180
81.89816, 16, 437, 172, -33.92308, 180
81.91859, 16, 437, 176, -31.15385, 180
81.93983, 17, 437, 177, -30.46154, 180
81.95593, 17, 437, 176, -31.15385, 180
81.97623, 17, 435, 177, -30.46154, 180
81.99692, 17, 437, 177, -30.46154, 180
82.01662, 17, 437, 179, -29.07692, 180
82.03726, 17, 437, 181, -27.69231, 180
82.05762, 16, 435, 176, -31.15385, 180
82.07666, 16, 437, 181, -27.69231, 180
82.09921, 17, 436, 184, -25.61539, 180
82.1173, 18, 436, 185, -24.92308, 180
82.13744, 16, 442, 190, -21.46154, 180
82.15997, 17, 437, 181, -27.69231, 180
82.17941, 18, 437, 181, -27.69231, 180
82.19704, 16, 438, 180, -28.38461, 180
82.21655, 17, 439, 179, -29.07692, 180
82.23608, 17, 440, 178, -29.76923, 180
82.25738, 19, 439, 181, -27.69231, 180
82.2776, 17, 440, 181, -27.69231, 180
82.29653, 17, 440, 181, -27.69231, 180
82.31426, 16, 440, 181, -27.69231, 180
82.33384, 17, 440, 181, -27.69231, 180
82.35423, 17, 440, 183, -26.30769, 180
82.3773, 16, 440, 181, -27.69231, 180
82.39663, 17, 441, 181, -27.69231, 180
82.41285, 16, 441, 181, -27.69231, 180
82.43304, 16, 441, 183, -26.30769, 180
82.4511, 17, 441, 184, -25.61539, 180
82.4716, 17, 441, 186, -24.23077, 180
82.49207, 17, 441, 187, -23.53846, 180
82.49207: Grabbed object
82.51412, 16, 441, 186, -24.23077, 180
82.53078, 16, 440, 187, -23.53846, 180
82.54967, 17, 439, 187, -23.53846, 180
82.56973, 17, 438, 186, -24.23077, 180
82.59095, 17, 438, 188, -22.84615, 180
82.61084, 17, 438, 191, -20.76923, 180
82.63172, 17, 438, 191, -20.76923, 180
82.64764, 17, 438, 191, -20.76923, 180
82.66792, 16, 438, 191, -20.76923, 180
82.68819, 16, 438, 192, -20.07692, 180
82.71049, 17, 437, 192, -20.07692, 180
82.73065, 17, 437, 191, -20.76923, 180
82.75017, 17, 436, 191, -20.76923, 180
82.76627, 17, 437, 192, -20.07692, 180
82.78855, 16, 437, 192, -20.07692, 180
82.80811, 17, 437, 191, -20.76923, 180
82.82782, 17, 438, 190, -21.46154, 180
82.8486, 17, 438, 189, -22.15385, 180
82.8689, 17, 438, 189, -22.15385, 180
82.88522, 16, 439, 188, -22.84615, 180
82.90601, 17, 439, 190, -21.46154, 180
82.92694, 17, 439, 190, -21.46154, 180
82.94678, 17, 439, 190, -21.46154, 180
82.96692, 16, 438, 192, -20.07692, 180
82.98788, 17, 438, 192, -20.07692, 180
83.0041, 17, 438, 192, -20.07692, 180
83.02557, 17, 439, 191, -20.76923, 180
83.04635, 16, 439, 190, -21.46154, 180
83.06632, 17, 439, 192, -20.07692, 180
83.08635, 17, 440, 192, -20.07692, 180
83.10619, 17, 440, 193, -19.38461, 180
83.12319, 17, 441, 193, -19.38461, 180
83.14331, 17, 441, 192, -20.07692, 180
83.16483, 17, 441, 192, -20.07692, 180
83.18404, 16, 442, 192, -20.07692, 180
83.20464, 17, 442, 192, -20.07692, 180
83.22605, 17, 443, 192, -20.07692, 180
83.24268, 17, 444, 192, -20.07692, 180
83.26302, 17, 444, 192, -20.07692, 180
83.28275, 17, 444, 192, -20.07692, 180
83.3029, 17, 445, 192, -20.07692, 180
83.32324, 17, 445, 192, -20.07692, 180
83.33997, 17, 446, 191, -20.76923, 180
83.3608, 17, 447, 191, -20.76923, 180
83.38094, 17, 448, 191, -20.76923, 180
83.40121, 17, 448, 192, -20.07692, 180
83.42191, 17, 447, 199, -15.23077, 180
83.44369, 17, 447, 201, -13.84615, 180
83.46032, 17, 447, 201, -13.84615, 180
83.48036, 17, 448, 201, -13.84615, 180
83.49957, 17, 448, 202, -13.15385, 180
83.52013, 17, 448, 204, -11.76923, 180
83.54035, 17, 449, 204, -11.76923, 180
83.56045, 17, 450, 204, -11.76923, 180
83.57949, 17, 453, 191, -20.76923, 180
83.59759, 16, 454, 191, -20.76923, 180
83.61806, 17, 454, 191, -20.76923, 180
83.6397, 17, 454, 190, -21.46154, 180
83.66119, 17, 455, 191, -20.76923, 180
83.68081, 17, 455, 191, -20.76923, 180
83.69761, 17, 455, 191, -20.76923, 180
83.71796, 16, 454, 191, -20.76923, 180
83.73726, 17, 454, 191, -20.76923, 180
83.75767, 17, 453, 191, -20.76923, 180
83.77906, 17, 452, 191, -20.76923, 180
83.79877, 17, 451, 191, -20.76923, 180
83.81536, 17, 450, 191, -20.76923, 180
83.83584, 17, 450, 191, -20.76923, 180
83.85643, 17, 449, 191, -20.76923, 180
83.87753, 17, 449, 191, -20.76923, 180
83.89738, 17, 449, 191, -20.76923, 180
83.91709, 16, 448, 191, -20.76923, 180
83.93359, 17, 447, 190, -21.46154, 180
83.95396, 16, 447, 191, -20.76923, 180
83.97456, 17, 446, 191, -20.76923, 180
83.9961, 17, 446, 191, -20.76923, 180
84.01582, 17, 445, 191, -20.76923, 180
84.03617, 17, 445, 191, -20.76923, 180
84.05224, 17, 444, 191, -20.76923, 180
84.07333, 17, 445, 191, -20.76923, 180
84.09438, 17, 444, 191, -20.76923, 180
84.11401, 17, 443, 191, -20.76923, 180
84.13407, 17, 443, 191, -20.76923, 180
84.15463, 17, 443, 191, -20.76923, 180
84.17097, 17, 443, 191, -20.76923, 180
84.19149, 17, 443, 191, -20.76923, 180
84.21352, 17, 443, 191, -20.76923, 180
84.23246, 17, 443, 191, -20.76923, 180
84.25295, 17, 442, 191, -20.76923, 180
84.26934, 17, 442, 191, -20.76923, 180
84.28987, 17, 442, 191, -20.76923, 180
84.31209, 17, 443, 191, -20.76923, 180
84.3308, 17, 443, 191, -20.76923, 180
84.35126, 17, 444, 191, -20.76923, 180
84.37156, 17, 443, 192, -20.07692, 180
84.38798, 16, 444, 191, -20.76923, 180
84.40862, 17, 444, 191, -20.76923, 180
84.4314, 17, 444, 191, -20.76923, 180
84.45139, 17, 444, 192, -20.07692, 180
84.47221, 17, 444, 192, -20.07692, 180
84.49218, 17, 444, 192, -20.07692, 180
84.51164, 16, 445, 191, -20.76923, 180
84.52962, 16, 445, 191, -20.76923, 180
84.54984, 17, 444, 191, -20.76923, 180
84.57011, 17, 444, 191, -20.76923, 180
84.59088, 17, 444, 191, -20.76923, 180
84.61136, 17, 444, 191, -20.76923, 180
84.63012, 17, 445, 191, -20.76923, 180
84.64684, 17, 444, 191, -20.76923, 180
84.66695, 17, 445, 191, -20.76923, 180
84.68713, 17, 444, 191, -20.76923, 180
84.70795, 16, 445, 191, -20.76923, 180
84.72997, 16, 445, 191, -20.76923, 180
84.74597, 17, 444, 191, -20.76923, 180
84.76601, 17, 445, 191, -20.76923, 180
84.78598, 17, 445, 191, -20.76923, 180
84.80705, 17, 445, 191, -20.76923, 180
84.82758, 17, 444, 191, -20.76923, 180
84.84726, 17, 445, 191, -20.76923, 180
84.86391, 17, 445, 191, -20.76923, 180
84.88407, 16, 445, 191, -20.76923, 180
84.90461, 17, 445, 191, -20.76923, 180
84.92514, 17, 445, 191, -20.76923, 180
84.94748, 16, 445, 191, -20.76923, 180
84.96609, 17, 445, 191, -20.76923, 180
84.98193, 16, 446, 191, -20.76923, 180
85.00228, 16, 446, 191, -20.76923, 180
85.02332, 17, 446, 192, -20.07692, 180
85.0434, 17, 446, 192, -20.07692, 180
85.06423, 17, 446, 192, -20.07692, 180
85.08032, 17, 446, 191, -20.76923, 180
85.10094, 17, 446, 191, -20.76923, 180
85.12236, 17, 447, 191, -20.76923, 180
85.14227, 17, 448, 192, -20.07692, 180
85.16492, 17, 448, 191, -20.76923, 180
85.18323, 17, 448, 191, -20.76923, 180
85.19948, 17, 449, 191, -20.76923, 180
85.21961, 17, 450, 191, -20.76923, 180
85.24046, 17, 450, 191, -20.76923, 180
85.26064, 17, 450, 191, -20.76923, 180
85.28099, 16, 452, 191, -20.76923, 180
85.30148, 16, 452, 191, -20.76923, 180
85.31825, 17, 453, 191, -20.76923, 180
85.3382, 17, 454, 190, -21.46154, 180
85.35906, 17, 455, 191, -20.76923, 180
85.38188, 17, 456, 191, -20.76923, 0
85.39976, 16, 461, 165, -38.76923, 0
85.42026, 16, 459, 135, -59.53846, 0
85.43664, 17, 455, 125, -66.46154, 0
85.45734, 18, 448, 119, -70.61539, 0
85.47821, 17, 445, 116, -72.69231, 0
85.49808, 17, 439, 121, -69.23077, 0
85.51886, 17, 437, 127, -65.07692, 0
85.53928, 17, 436, 129, -63.69231, 0
85.55567, 17, 430, 130, -63, 0
85.57639, 16, 434, 130, -63, 0
85.59816, 17, 428, 126, -65.76923, 0
85.61694, 18, 427, 127, -65.07692, 0
85.63726, 16, 428, 123, -67.84615, 0
85.65813, 16, 430, 118, -71.30769, 0
85.67419, 16, 428, 119, -70.61539, 0
85.69614, 16, 428, 119, -70.61539, 0
85.7156, 16, 428, 117, -72, 0
85.73642, 16, 428, 116, -72.69231, 0
85.75686, 16, 427, 112, -75.46154, 0
85.77831, 16, 428, 111, -76.15385, 0
85.79608, 16, 428, 110, -76.84615, 0
85.81401, 16, 428, 108, -78.23077, 0
85.83421, 16, 427, 106, -79.61539, 0
85.85436, 14, 431, 106, -79.61539, 0
85.87513, 16, 427, 99, -84.46154, 0
85.87513: Released object
85.89126, 16, 425, 106, -79.61539, 0
85.9126, 16, 425, 106, -79.61539, 0
85.93232, 15, 425, 106, -79.61539, 0
85.95296, 17, 424, 106, -79.61539, 0
85.97308, 16, 423, 106, -79.61539, 0
85.99395, 16, 423, 105, -80.30769, 0
86.01236, 17, 422, 105, -80.30769, 0
86.03071, 17, 422, 106, -79.61539, 0
86.05101, 16, 421, 106, -79.61539, 0
86.07148, 17, 419, 108, -78.23077, 0
86.09185, 17, 419, 107, -78.92308, 0
86.11735, 16, 417, 104, -81, 0
86.1321, 17, 418, 107, -78.92308, 0
86.15174, 17, 418, 108, -78.23077, 0
86.17062, 17, 417, 108, -78.23077, 0
86.19089, 17, 417, 108, -78.23077, 0
86.21159, 17, 417, 108, -78.23077, 0
86.23267, 17, 417, 109, -77.53846, 0
86.24894, 17, 417, 110, -76.84615, 0
86.26863, 17, 418, 109, -77.53846, 0
86.28913, 17, 418, 109, -77.53846, 0
86.30979, 17, 417, 109, -77.53846, 0
86.33117, 17, 417, 109, -77.53846, 0
86.35054, 17, 418, 109, -77.53846, 0
86.36693, 17, 418, 109, -77.53846, 0
86.38741, 16, 419, 109, -77.53846, 0
86.40802, 17, 419, 108, -78.23077, 0
86.42899, 17, 418, 109, -77.53846, 0
86.44987, 17, 418, 108, -78.23077, 0
86.47084, 16, 419, 108, -78.23077, 0
86.488, 17, 418, 108, -78.23077, 0
86.50798, 17, 418, 109, -77.53846, 0
86.52927, 17, 417, 109, -77.53846, 0
86.55015, 17, 417, 109, -77.53846, 0
86.56969, 17, 417, 109, -77.53846, 0
86.58984, 17, 417, 109, -77.53846, 0
86.60756, 17, 417, 108, -78.23077, 0
86.62533, 17, 417, 108, -78.23077, 0
86.64667, 17, 417, 109, -77.53846, 0
86.66702, 17, 417, 109, -77.53846, 0
86.68724, 17, 416, 108, -78.23077, 0
86.70279, 17, 416, 108, -78.23077, 0
86.72359, 17, 417, 108, -78.23077, 0
86.74419, 17, 417, 108, -78.23077, 0
86.76569, 17, 417, 109, -77.53846, 0
86.78492, 17, 416, 109, -77.53846, 0
86.80532, 17, 417, 108, -78.23077, 0
86.82175, 17, 417, 108, -78.23077, 0
86.84226, 17, 417, 108, -78.23077, 0
86.86349, 17, 417, 108, -78.23077, 0
86.8841, 17, 417, 108, -78.23077, 0
86.9035, 17, 417, 108, -78.23077, 0
86.9242, 17, 417, 108, -78.23077, 0
86.94028, 17, 417, 108, -78.23077, 0
86.9612, 17, 417, 108, -78.23077, 0
86.98155, 17, 417, 108, -78.23077, 0
87.00278, 17, 416, 108, -78.23077, 0
87.02207, 17, 416, 108, -78.23077, 0
87.04288, 17, 417, 108, -78.23077, 0
87.05937, 17, 416, 108, -78.23077, 0
87.08067, 17, 416, 108, -78.23077, 0
87.10004, 17, 416, 108, -78.23077, 0
87.12061, 16, 416, 108, -78.23077, 0
87.14095, 16, 415, 108, -78.23077, 0
87.16491, 17, 416, 108, -78.23077, 0
87.18217, 17, 416, 108, -78.23077, 0
87.20226, 17, 416, 108, -78.23077, 0
87.22199, 17, 417, 108, -78.23077, 0
87.24213, 17, 416, 108, -78.23077, 0
87.26176, 17, 416, 108, -78.23077, 0
87.28252, 17, 416, 108, -78.23077, 0
87.2999, 16, 416, 108, -78.23077, 0
87.31858, 16, 416, 108, -78.23077, 0
87.33889, 17, 416, 108, -78.23077, 0
87.36043, 17, 416, 108, -78.23077, 0
87.38062, 16, 417, 108, -78.23077, 0
87.39699, 17, 416, 108, -78.23077, 0
87.41712, 17, 417, 108, -78.23077, 0
87.43788, 17, 417, 108, -78.23077, 0
87.45732, 17, 416, 108, -78.23077, 0
87.47893, 16, 416, 108, -78.23077, 0
87.50002, 17, 416, 108, -78.23077, 0
87.5173, 17, 416, 108, -78.23077, 0
87.53539, 17, 415, 108, -78.23077, 0
87.55666, 17, 416, 108, -78.23077, 0
87.57743, 17, 416, 108, -78.23077, 0
87.59801, 17, 416, 108, -78.23077, 0
87.61815, 16, 416, 109, -77.53846, 0
87.63382, 17, 416, 108, -78.23077, 0
87.65456, 16, 416, 108, -78.23077, 0
87.6748, 17, 415, 108, -78.23077, 0
87.69578, 17, 416, 108, -78.23077, 0
87.71696, 17, 416, 108, -78.23077, 0
87.73898, 17, 416, 108, -78.23077, 0
87.75419, 17, 416, 108, -78.23077, 0
87.77148, 17, 416, 108, -78.23077, 0
87.7924, 17, 416, 108, -78.23077, 0
87.81324, 17, 416, 108, -78.23077, 0
87.83276, 16, 416, 108, -78.23077, 0
87.85314, 17, 416, 108, -78.23077, 0
87.8696, 17, 416, 108, -78.23077, 0
87.89001, 17, 416, 108, -78.23077, 0
87.91067, 17, 416, 108, -78.23077, 0
87.93082, 17, 416, 108, -78.23077, 0
87.95148, 17, 415, 108, -78.23077, 0
87.9761, 17, 416, 108, -78.23077, 0
87.99243, 17, 415, 108, -78.23077, 0
88.01299, 17, 416, 108, -78.23077, 0
88.03183, 17, 416, 108, -78.23077, 0
88.05037, 17, 416, 108, -78.23077, 0
88.07127, 17, 416, 108, -78.23077, 0
88.08747, 17, 415, 108, -78.23077, 0
88.10809, 16, 415, 108, -78.23077, 0
88.12892, 17, 415, 108, -78.23077, 0
88.1491, 17, 415, 108, -78.23077, 0
88.16933, 17, 414, 108, -78.23077, 0
88.18961, 17, 414, 108, -78.23077, 0
88.20634, 17, 414, 108, -78.23077, 0
88.22688, 17, 414, 108, -78.23077, 0
88.24841, 17, 414, 108, -78.23077, 0
88.26801, 16, 413, 108, -78.23077, 0
88.28805, 16, 412, 108, -78.23077, 0
88.30855, 16, 412, 108, -78.23077, 0
88.32595, 17, 411, 108, -78.23077, 0
88.34644, 17, 411, 108, -78.23077, 0
88.36655, 17, 410, 108, -78.23077, 0
88.38827, 17, 409, 109, -77.53846, 0
88.40695, 17, 408, 109, -77.53846, 0
88.42761, 17, 406, 109, -77.53846, 0
88.44534, 16, 405, 110, -76.84615, 0
88.46527, 17, 404, 109, -77.53846, 0
88.48473, 17, 402, 110, -76.84615, 0
88.50527, 17, 401, 110, -76.84615, 0
88.52708, 17, 400, 112, -75.46154, 0
88.54725, 17, 399, 115, -73.38461, 180
88.56354, 15, 408, 86, -93.46154, 180
88.58314, 16, 421, 69, -105.2308, 180
88.60454, 18, 432, 69, -105.2308, 180
88.62409, 20, 436, 76, -100.3846, 180
88.65084, 19, 438, 84, -94.84615, 180
88.66614, 18, 440, 92, -89.30769, 180
88.68209, 16, 440, 101, -83.07692, 180
88.70281, 16, 447, 112, -75.46154, 180
88.72249, 16, 441, 118, -71.30769, 180
88.74335, 16, 440, 121, -69.23077, 180
88.76566, 22, 441, 125, -66.46154, 180
88.78115, 16, 441, 129, -63.69231, 180
88.8002, 16, 440, 128, -64.38461, 180
88.82086, 14, 446, 136, -58.84615, 180
88.84045, 16, 440, 138, -57.46154, 180
88.86098, 16, 441, 140, -56.07692, 180
88.88115, 16, 439, 142, -54.69231, 180
88.89746, 16, 441, 145, -52.61538, 180
88.91789, 16, 441, 149, -49.84615, 180
88.93839, 16, 438, 155, -45.69231, 180
88.9592, 17, 438, 158, -43.61538, 180
88.98024, 17, 438, 159, -42.92308, 180
88.99988, 17, 439, 159, -42.92308, 180
89.0163, 16, 439, 159, -42.92308, 180
89.03754, 17, 439, 160, -42.23077, 180
89.05724, 17, 439, 162, -40.84615, 180
89.07824, 17, 439, 162, -40.84615, 180
89.0981, 16, 439, 162, -40.84615, 180
89.11887, 15, 441, 163, -40.15385, 180
89.13523, 17, 439, 164, -39.46154, 180
89.15596, 17, 439, 165, -38.76923, 180
89.17656, 16, 438, 166, -38.07692, 180
89.19849, 16, 439, 165, -38.76923, 180
89.21697, 16, 440, 165, -38.76923, 180
89.23824, 16, 439, 161, -41.53846, 180
89.2538, 16, 439, 169, -36, 180
89.27433, 16, 439, 171, -34.61538, 180
89.29637, 16, 438, 172, -33.92308, 180
89.31531, 17, 438, 173, -33.23077, 180
89.33615, 16, 438, 173, -33.23077, 180
89.35627, 16, 438, 174, -32.53846, 180
89.37245, 16, 438, 174, -32.53846, 180
89.39325, 17, 439, 173, -33.23077, 180
89.41391, 17, 440, 175, -31.84615, 180
89.43407, 16, 439, 176, -31.15385, 180
89.45565, 16, 440, 177, -30.46154, 180
89.47504, 16, 439, 178, -29.76923, 180
89.49126, 15, 449, 179, -29.07692, 180
89.51266, 17, 440, 181, -27.69231, 180
89.53217, 17, 439, 183, -26.30769, 180
89.55274, 17, 439, 186, -24.23077, 180
89.5736, 17, 439, 191, -20.76923, 180
89.5736: Grabbed object
89.59396, 17, 438, 192, -20.07692, 180
89.61154, 17, 437, 191, -20.76923, 180
89.63068, 17, 437, 191, -20.76923, 180
89.65401, 17, 437, 191, -20.76923, 180
89.67642, 16, 438, 184, -25.61539, 180
89.69572, 17, 437, 190, -21.46154, 180
89.71233, 17, 437, 191, -20.76923, 180
89.73238, 17, 438, 193, -19.38461, 180
89.75307, 17, 438, 191, -20.76923, 180
89.77055, 17, 437, 191, -20.76923, 180
89.79142, 17, 438, 192, -20.07692, 180
89.81211, 17, 439, 193, -19.38461, 180
89.82864, 17, 439, 193, -19.38461, 180
89.84763, 16, 438, 194, -18.69231, 180
89.86829, 16, 438, 195, -18, 180
89.88965, 16, 446, 197, -16.61539, 180
89.90881, 17, 439, 194, -18.69231, 180
89.9305, 17, 439, 194, -18.69231, 180
89.9472, 16, 440, 194, -18.69231, 180
89.96653, 17, 440, 194, -18.69231, 180
89.9871, 17, 440, 194, -18.69231, 180
90.00725, 17, 440, 196, -17.30769, 180
90.0289, 17, 440, 196, -17.30769, 180
90.04826, 17, 440, 196, -17.30769, 180
90.06474, 16, 441, 197, -16.61539, 180
90.08556, 16, 440, 197, -16.61539, 180
90.10639, 17, 440, 197, -16.61539, 180
90.12622, 17, 439, 199, -15.23077, 180
90.14728, 17, 440, 197, -16.61539, 180
90.16978, 17, 440, 200, -14.53846, 180
90.18647, 17, 439, 199, -15.23077, 180
90.20645, 17, 439, 199, -15.23077, 180
90.22747, 17, 440, 199, -15.23077, 180
90.24866, 17, 440, 199, -15.23077, 180
90.26753, 17, 440, 199, -15.23077, 180
90.28827, 17, 440, 199, -15.23077, 180
90.30661, 17, 440, 199, -15.23077, 180
90.32513, 17, 440, 199, -15.23077, 180
90.34664, 17, 440, 199, -15.23077, 180
90.36771, 17, 440, 199, -15.23077, 180
90.38714, 17, 440, 199, -15.23077, 180
90.4073, 17, 441, 199, -15.23077, 180
90.42423, 17, 440, 199, -15.23077, 180
90.44419, 17, 441, 199, -15.23077, 180
90.465, 18, 441, 199, -15.23077, 180
90.48762, 17, 440, 199, -15.23077, 180
90.50539, 17, 441, 199, -15.23077, 180
90.52841, 17, 441, 199, -15.23077, 180
90.54369, 17, 442, 199, -15.23077, 180
90.5627, 17, 442, 199, -15.23077, 180
90.58337, 17, 442, 200, -14.53846, 180
90.60357, 17, 443, 199, -15.23077, 180
90.62372, 17, 444, 199, -15.23077, 180
90.64078, 17, 445, 199, -15.23077, 180
90.66092, 17, 446, 199, -15.23077, 180
90.68231, 17, 447, 199, -15.23077, 180
90.70186, 17, 447, 199, -15.23077, 180
90.72206, 17, 447, 199, -15.23077, 180
90.74474, 18, 446, 212, -6.230769, 180
90.76093, 17, 447, 212, -6.230769, 180
90.78077, 18, 447, 212, -6.230769, 180
90.79809, 17, 447, 212, -6.230769, 180
90.81966, 18, 448, 212, -6.230769, 180
90.83937, 17, 452, 199, -15.23077, 180
90.86028, 17, 452, 200, -14.53846, 180
90.87782, 17, 453, 199, -15.23077, 180
90.89737, 17, 454, 198, -15.92308, 180
90.9171, 17, 455, 198, -15.92308, 180
90.93717, 17, 455, 198, -15.92308, 180
90.95837, 17, 456, 197, -16.61539, 0
90.97889, 16, 460, 189, -22.15385, 0
90.99601, 17, 459, 153, -47.07692, 0
91.01522, 17, 458, 131, -62.30769, 0
91.03584, 18, 455, 125, -66.46154, 0
91.05624, 18, 449, 121, -69.23077, 0
91.0768, 18, 442, 120, -69.92308, 0
91.09749, 17, 437, 123, -67.84615, 0
91.11399, 17, 434, 127, -65.07692, 0
91.13396, 17, 431, 130, -63, 0
91.15425, 17, 429, 131, -62.30769, 0
91.17702, 16, 429, 133, -60.92308, 0
91.19646, 16, 428, 130, -63, 0
91.21607, 15, 434, 131, -62.30769, 0
91.23227, 16, 431, 123, -67.84615, 0
91.25237, 15, 436, 128, -64.38461, 0
91.27294, 16, 429, 125, -66.46154, 0
91.29415, 16, 428, 122, -68.53846, 0
91.31424, 17, 428, 120, -69.92308, 0
91.33671, 16, 427, 119, -70.61539, 0
91.35303, 16, 428, 117, -72, 0
91.37358, 16, 427, 116, -72.69231, 0
91.39655, 16, 427, 115, -73.38461, 0
91.416, 16, 426, 114, -74.07692, 0
91.4348, 16, 426, 114, -74.07692, 0
91.46118, 16, 426, 108, -78.23077, 0
91.47308, 16, 425, 108, -78.23077, 0
91.49092, 16, 424, 110, -76.84615, 0
91.51157, 16, 425, 106, -79.61539, 0
91.53175, 16, 425, 109, -77.53846, 0
91.55221, 16, 426, 103, -81.69231, 0
91.57249, 16, 424, 111, -76.15385, 0
91.5892, 16, 424, 109, -77.53846, 0
91.61106, 16, 423, 107, -78.92308, 0
91.63102, 17, 423, 108, -78.23077, 0
91.65068, 15, 433, 109, -77.53846, 0
91.67114, 17, 421, 105, -80.30769, 0
91.69125, 16, 422, 105, -80.30769, 0
91.70787, 17, 422, 106, -79.61539, 0
91.72888, 17, 422, 107, -78.92308, 0
91.74874, 16, 421, 106, -79.61539, 0
91.7693, 16, 422, 106, -79.61539, 0
91.78969, 16, 421, 104, -81, 0
91.80985, 16, 421, 103, -81.69231, 0
91.827, 17, 420, 103, -81.69231, 0
91.84708, 16, 418, 101, -83.07692, 0
91.84708: Released object
91.86747, 17, 419, 105, -80.30769, 0
91.88811, 17, 419, 107, -78.92308, 0
91.90765, 17, 420, 108, -78.23077, 0
91.9242, 17, 420, 107, -78.92308, 0
91.94579, 17, 419, 106, -79.61539, 0
91.96568, 17, 420, 106, -79.61539, 0
91.98617, 17, 420, 106, -79.61539, 0
92.00607, 17, 420, 105, -80.30769, 0
92.0279, 17, 420, 105, -80.30769, 0
92.04433, 17, 420, 106, -79.61539, 0
92.06401, 17, 419, 106, -79.61539, 0
92.08408, 17, 420, 104, -81, 0
92.10441, 16, 419, 104, -81, 0
92.12514, 17, 419, 104, -81, 0
92.1469, 17, 418, 105, -80.30769, 0
92.16259, 17, 419, 105, -80.30769, 0
92.18238, 17, 418, 106, -79.61539, 0
92.20264, 17, 418, 106, -79.61539, 0
92.22308, 17, 418, 106, -79.61539, 0
92.24568, 17, 419, 106, -79.61539, 0
92.26727, 17, 418, 106, -79.61539, 0
92.28266, 17, 418, 106, -79.61539, 0
92.30302, 17, 418, 106, -79.61539, 0
92.32389, 17, 418, 106, -79.61539, 0
92.34452, 17, 418, 106, -79.61539, 0
92.36557, 17, 418, 106, -79.61539, 0
92.38525, 17, 418, 106, -79.61539, 0
92.40182, 17, 418, 106, -79.61539, 0
92.42195, 16, 418, 106, -79.61539, 0
92.44296, 16, 418, 106, -79.61539, 0
92.46719, 17, 417, 106, -79.61539, 0
92.48134, 17, 417, 106, -79.61539, 0
92.49856, 17, 417, 106, -79.61539, 0
92.5181, 17, 417, 106, -79.61539, 0
92.53896, 17, 417, 106, -79.61539, 0
92.55917, 17, 417, 106, -79.61539, 0
92.58025, 17, 417, 106, -79.61539, 0
92.60116, 17, 416, 106, -79.61539, 0
92.61653, 17, 417, 106, -79.61539, 0
92.63694, 18, 417, 106, -79.61539, 0
92.6575, 17, 417, 106, -79.61539, 0
92.67921, 17, 416, 106, -79.61539, 0
92.69823, 17, 416, 106, -79.61539, 0
92.71886, 17, 416, 106, -79.61539, 0
92.73557, 17, 416, 106, -79.61539, 0
92.75724, 17, 416, 106, -79.61539, 0
92.7765, 17, 416, 106, -79.61539, 0
92.79736, 17, 416, 106, -79.61539, 0
92.81774, 17, 415, 106, -79.61539, 0
92.8375, 17, 415, 106, -79.61539, 0
92.8539, 17, 416, 106, -79.61539, 0
92.87455, 17, 416, 106, -79.61539, 0
92.89702, 17, 415, 106, -79.61539, 0
92.91568, 17, 416, 106, -79.61539, 0
92.93623, 17, 415, 106, -79.61539, 0
92.95606, 17, 415, 106, -79.61539, 0
92.97259, 17, 415, 105, -80.30769, 0
92.99326, 17, 415, 106, -79.61539, 0
93.01402, 17, 415, 106, -79.61539, 0
93.034, 17, 414, 106, -79.61539, 0
93.05466, 17, 414, 106, -79.61539, 0
93.07845, 17, 414, 106, -79.61539, 0
93.09698, 17, 414, 106, -79.61539, 0
93.11578, 17, 413, 106, -79.61539, 0
93.13493, 17, 413, 106, -79.61539, 0
93.15524, 17, 413, 106, -79.61539, 0
93.17637, 17, 412, 106, -79.61539, 0
93.19296, 17, 412, 106, -79.61539, 0
93.21278, 17, 412, 106, -79.61539, 0
93.23347, 16, 411, 106, -79.61539, 0
93.25339, 17, 410, 106, -79.61539, 0
93.27352, 17, 409, 106, -79.61539, 0
93.29578, 17, 408, 106, -79.61539, 0
93.31302, 17, 408, 106, -79.61539, 0
93.33208, 17, 407, 106, -79.61539, 0
93.35345, 17, 407, 106, -79.61539, 0
93.37231, 17, 405, 107, -78.92308, 0
93.39312, 17, 404, 107, -78.92308, 0
93.41348, 17, 402, 107, -78.92308, 0
93.43072, 17, 401, 107, -78.92308, 0
93.45067, 17, 400, 107, -78.92308, 0
93.47049, 17, 399, 108, -78.23077, 180
93.49091, 15, 407, 78, -99, 180
93.51171, 16, 424, 65, -108, 180
93.53409, 17, 432, 66, -107.3077, 180
93.55, 19, 436, 73, -102.4615, 180
93.57006, 18, 439, 81, -96.92308, 180
93.58949, 19, 441, 90, -90.69231, 180
93.61027, 17, 442, 101, -83.07692, 180
93.63094, 17, 444, 112, -75.46154, 180
93.65108, 17, 444, 121, -69.23077, 180
93.66815, 17, 443, 128, -64.38461, 180
93.68757, 17, 442, 132, -61.61538, 180
93.70862, 17, 441, 135, -59.53846, 180
93.72999, 16, 439, 129, -63.69231, 180
93.75143, 16, 439, 132, -61.61538, 180
93.77105, 16, 442, 122, -68.53846, 180
93.78694, 16, 439, 132, -61.61538, 180
93.80464, 16, 439, 132, -61.61538, 180
93.82495, 17, 439, 133, -60.92308, 180
93.84622, 16, 438, 133, -60.92308, 180
93.8661, 16, 439, 138, -57.46154, 180
93.88636, 16, 438, 139, -56.76923, 180
93.90238, 23, 438, 140, -56.07692, 180
93.92298, 16, 438, 140, -56.07692, 180
93.94349, 16, 439, 141, -55.38462, 180
93.9654, 16, 439, 143, -54, 180
93.98429, 16, 440, 144, -53.30769, 180
94.00078, 16, 439, 145, -52.61538, 180
94.02135, 16, 438, 153, -47.07692, 180
94.04165, 17, 438, 156, -45, 180
94.06308, 16, 435, 156, -45, 180
94.08281, 16, 437, 157, -44.30769, 180
94.10306, 17, 436, 156, -45, 180
94.11956, 16, 437, 158, -43.61538, 180
94.1401, 16, 438, 161, -41.53846, 180
94.16086, 16, 437, 160, -42.23077, 180
94.18177, 16, 439, 163, -40.15385, 180
94.20165, 15, 448, 165, -38.76923, 180
94.22229, 17, 437, 169, -36, 180
94.23821, 17, 436, 171, -34.61538, 180
94.2588, 17, 437, 171, -34.61538, 180
94.27998, 16, 438, 172, -33.92308, 180
94.2998, 17, 438, 174, -32.53846, 180
94.32021, 16, 437, 170, -35.30769, 180
94.34046, 16, 437, 170, -35.30769, 180
94.35707, 17, 438, 176, -31.15385, 180
94.37804, 16, 438, 176, -31.15385, 180
94.3992, 16, 437, 177, -30.46154, 180
94.41844, 17, 440, 178, -29.76923, 180
94.439, 17, 437, 178, -29.76923, 180
94.45981, 16, 439, 176, -31.15385, 180
94.47635, 17, 439, 186, -24.23077, 180
94.49749, 17, 438, 191, -20.76923, 180
94.49749: Grabbed object
94.51689, 16, 439, 191, -20.76923, 180
94.53735, 17, 437, 191, -20.76923, 180
94.55761, 17, 438, 191, -20.76923, 180
94.57912, 17, 438, 191, -20.76923, 180
94.59708, 17, 436, 190, -21.46154, 180
94.61542, 17, 439, 191, -20.76923, 180
94.63641, 17, 439, 192, -20.07692, 180
94.65599, 17, 439, 192, -20.07692, 180
94.67682, 17, 439, 192, -20.07692, 180
94.69775, 17, 439, 192, -20.07692, 180
94.71458, 17, 439, 193, -19.38461, 180
94.73388, 17, 439, 193, -19.38461, 180
94.75574, 17, 439, 194, -18.69231, 180
94.77461, 16, 440, 193, -19.38461, 180
94.79677, 17, 439, 195, -18, 180
94.81717, 17, 440, 195, -18, 180
94.83392, 17, 439, 195, -18, 180
94.85262, 17, 440, 194, -18.69231, 180
94.87341, 17, 441, 195, -18, 180
94.89442, 16, 441, 195, -18, 180
94.91412, 17, 440, 196, -17.30769, 180
94.93452, 17, 441, 197, -16.61539, 180
94.95095, 17, 440, 199, -15.23077, 180
94.97132, 16, 440, 198, -15.92308, 180
94.99178, 17, 441, 198, -15.92308, 180
95.01312, 17, 440, 198, -15.92308, 180
95.03441, 17, 441, 198, -15.92308, 180
95.05766, 17, 440, 198, -15.92308, 180
95.0729, 17, 440, 198, -15.92308, 180
95.09003, 17, 441, 198, -15.92308, 180
95.1106, 17, 441, 198, -15.92308, 180
95.13116, 17, 441, 198, -15.92308, 180
95.15149, 17, 442, 198, -15.92308, 180
95.17186, 17, 442, 198, -15.92308, 180
95.18829, 16, 443, 198, -15.92308, 180
95.20899, 17, 443, 198, -15.92308, 180
95.22997, 16, 443, 198, -15.92308, 180
95.25072, 17, 443, 198, -15.92308, 180
95.27083, 17, 443, 198, -15.92308, 180
95.28689, 17, 444, 198, -15.92308, 180
95.3072, 17, 444, 197, -16.61539, 180
95.32838, 17, 444, 197, -16.61539, 180
95.35094, 17, 443, 198, -15.92308, 180
95.36866, 17, 443, 198, -15.92308, 180
95.38897, 17, 444, 198, -15.92308, 180
95.40575, 17, 444, 198, -15.92308, 180
95.42649, 17, 443, 197, -16.61539, 180
95.4473, 16, 443, 197, -16.61539, 180
95.46787, 17, 444, 197, -16.61539, 180
95.48737, 17, 443, 197, -16.61539, 180
95.50791, 17, 444, 197, -16.61539, 180
95.52412, 17, 444, 197, -16.61539, 180
95.54586, 17, 444, 197, -16.61539, 180
95.56564, 17, 444, 197, -16.61539, 180
95.58606, 17, 444, 198, -15.92308, 180
95.60628, 17, 444, 198, -15.92308, 180
95.62705, 17, 444, 197, -16.61539, 180
95.64394, 17, 445, 197, -16.61539, 180
95.66396, 17, 444, 197, -16.61539, 180
95.68512, 17, 445, 197, -16.61539, 180
95.70484, 17, 445, 197, -16.61539, 180
95.72523, 17, 444, 197, -16.61539, 180
95.74626, 17, 444, 197, -16.61539, 180
95.76275, 17, 445, 197, -16.61539, 180
95.78242, 17, 444, 197, -16.61539, 180
95.80299, 17, 444, 197, -16.61539, 180
95.82382, 17, 444, 198, -15.92308, 180
95.84513, 17, 444, 198, -15.92308, 180
95.86489, 17, 444, 198, -15.92308, 180
95.88065, 17, 445, 198, -15.92308, 180
95.90102, 17, 445, 198, -15.92308, 180
95.92152, 17, 445, 198, -15.92308, 180
95.94193, 18, 445, 197, -16.61539, 180
95.96321, 17, 446, 197, -16.61539, 180
95.98314, 17, 447, 197, -16.61539, 180
95.9995, 17, 447, 198, -15.92308, 180
96.02003, 17, 445, 207, -9.692307, 180
96.04045, 17, 445, 207, -9.692307, 180
96.06071, 17, 446, 207, -9.692307, 180
96.08119, 18, 445, 207, -9.692307, 180
96.10265, 18, 445, 207, -9.692307, 180
96.11821, 17, 446, 207, -9.692307, 180
96.13876, 17, 446, 208, -9, 180
96.15916, 17, 445, 208, -9, 180
96.18027, 17, 446, 208, -9, 180
96.20001, 17, 446, 208, -9, 180
96.22073, 17, 446, 208, -9, 180
96.23714, 17, 446, 209, -8.307693, 180
96.25738, 18, 447, 210, -7.615385, 180
96.27928, 17, 448, 210, -7.615385, 180
96.30075, 17, 449, 208, -9, 180
96.3259, 17, 452, 197, -16.61539, 180
96.34264, 17, 453, 197, -16.61539, 180
96.36081, 17, 454, 196, -17.30769, 180
96.37897, 16, 456, 197, -16.61539, 0
96.39988, 15, 469, 129, -63.69231, 0
96.41949, 17, 460, 132, -61.61538, 0
96.43969, 18, 457, 124, -67.15385, 0
96.4612, 19, 452, 118, -71.30769, 0
96.47763, 19, 445, 116, -72.69231, 0
96.49815, 18, 443, 119, -70.61539, 0
96.51777, 17, 436, 119, -70.61539, 0
96.54044, 17, 432, 126, -65.76923, 0
96.55878, 17, 431, 128, -64.38461, 0
96.58054, 17, 429, 127, -65.07692, 0
96.59651, 17, 429, 126, -65.76923, 0
96.61687, 16, 429, 125, -66.46154, 0
96.6371, 16, 429, 126, -65.76923, 0
96.65692, 16, 429, 123, -67.84615, 0
96.67784, 16, 427, 122, -68.53846, 0
96.69917, 16, 427, 121, -69.23077, 0
96.71417, 16, 426, 120, -69.92308, 0
96.73504, 16, 427, 112, -75.46154, 0
96.75709, 16, 425, 117, -72, 0
96.7765, 24, 425, 117, -72, 0
96.79691, 16, 425, 116, -72.69231, 0
96.81378, 16, 424, 116, -72.69231, 0
96.83218, 17, 424, 115, -73.38461, 0
96.85183, 15, 431, 116, -72.69231, 0
96.87225, 16, 425, 112, -75.46154, 0
96.89303, 16, 424, 112, -75.46154, 0
96.91421, 16, 424, 111, -76.15385, 0
96.93077, 16, 423, 111, -76.15385, 0
96.95023, 17, 424, 112, -75.46154, 0
96.97173, 17, 424, 113, -74.76923, 0
96.99115, 17, 423, 111, -76.15385, 0
97.01229, 16, 424, 110, -76.84615, 0
97.03207, 16, 423, 108, -78.23077, 0
97.04882, 16, 422, 109, -77.53846, 0
97.06894, 16, 422, 109, -77.53846, 0
97.0896, 16, 421, 108, -78.23077, 0
97.11002, 15, 431, 108, -78.23077, 0
97.13106, 16, 421, 107, -78.92308, 0
97.15096, 16, 421, 106, -79.61539, 0
97.16888, 17, 421, 107, -78.92308, 0
97.18764, 17, 420, 107, -78.92308, 0
97.20829, 18, 421, 107, -78.92308, 0
97.22941, 17, 420, 105, -80.30769, 0
97.24933, 16, 421, 104, -81, 0
97.26973, 16, 420, 104, -81, 0
97.28631, 16, 425, 104, -81, 0
97.30647, 17, 420, 104, -81, 0
97.3271, 17, 420, 105, -80.30769, 0
97.34803, 16, 420, 106, -79.61539, 0
97.36798, 17, 420, 106, -79.61539, 0
97.3896, 17, 420, 105, -80.30769, 0
97.40614, 16, 421, 104, -81, 0
97.42535, 17, 419, 104, -81, 0
97.44696, 17, 420, 104, -81, 0
97.46586, 16, 420, 103, -81.69231, 0
97.48663, 17, 419, 103, -81.69231, 0
97.50708, 17, 419, 103, -81.69231, 0
97.52317, 17, 420, 103, -81.69231, 0
97.54391, 17, 420, 102, -82.38461, 0
97.54391: Released object
97.56554, 16, 421, 102, -82.38461, 0
97.58517, 16, 420, 102, -82.38461, 0
97.60626, 16, 419, 102, -82.38461, 0
97.62315, 17, 419, 103, -81.69231, 0
97.64232, 17, 419, 104, -81, 0
97.66359, 17, 419, 104, -81, 0
97.68334, 17, 419, 104, -81, 0
97.70383, 17, 420, 104, -81, 0
97.72429, 16, 420, 104, -81, 0
97.74051, 17, 421, 101, -83.07692, 0
97.76215, 23, 419, 101, -83.07692, 0
97.78781, 17, 421, 100, -83.76923, 0
97.80328, 17, 420, 101, -83.07692, 0
97.82283, 17, 419, 102, -82.38461, 0
97.84251, 17, 419, 103, -81.69231, 0
97.86037, 17, 418, 103, -81.69231, 0
97.88025, 17, 419, 103, -81.69231, 0
97.8998, 16, 418, 103, -81.69231, 0
97.92075, 17, 418, 103, -81.69231, 0
97.94062, 17, 418, 103, -81.69231, 0
97.96201, 17, 418, 103, -81.69231, 0
97.97791, 17, 419, 103, -81.69231, 0
97.99806, 17, 418, 103, -81.69231, 0
98.0193, 17, 418, 103, -81.69231, 0
98.03898, 17, 418, 103, -81.69231, 0
98.06008, 17, 418, 103, -81.69231, 0
98.08056, 17, 417, 103, -81.69231, 0
98.09719, 16, 417, 103, -81.69231, 0
98.11689, 17, 417, 103, -81.69231, 0
98.13836, 17, 416, 103, -81.69231, 0
98.16061, 17, 415, 103, -81.69231, 0
98.18199, 16, 415, 103, -81.69231, 0
98.20161, 16, 415, 103, -81.69231, 0
98.21953, 16, 414, 103, -81.69231, 0
98.23787, 17, 413, 103, -81.69231, 0
98.25891, 17, 413, 103, -81.69231, 0
98.27964, 17, 413, 103, -81.69231, 0
98.30035, 16, 414, 103, -81.69231, 0
98.31641, 17, 414, 103, -81.69231, 0
98.33697, 17, 414, 103, -81.69231, 0
98.35738, 17, 414, 103, -81.69231, 0
98.3774, 17, 414, 103, -81.69231, 0
98.39841, 17, 413, 103, -81.69231, 0
98.41811, 17, 413, 103, -81.69231, 0
98.43711, 17, 413, 103, -81.69231, 0
98.45532, 17, 413, 103, -81.69231, 0
98.47635, 17, 412, 103, -81.69231, 0
98.49722, 17, 412, 103, -81.69231, 0
98.51797, 18, 412, 103, -81.69231, 0
98.53791, 17, 412, 103, -81.69231, 0
98.55386, 17, 411, 103, -81.69231, 0
98.57405, 17, 410, 103, -81.69231, 0
98.59538, 17, 409, 103, -81.69231, 0
98.61583, 17, 410, 103, -81.69231, 0
98.63309, 17, 409, 103, -81.69231, 0
98.65836, 16, 409, 103, -81.69231, 0
98.67492, 17, 409, 103, -81.69231, 0
98.69298, 16, 409, 103, -81.69231, 0
98.71352, 17, 408, 103, -81.69231, 0
98.7339, 17, 408, 103, -81.69231, 0
98.75416, 17, 408, 103, -81.69231, 0
98.77468, 17, 407, 103, -81.69231, 0
98.79309, 17, 408, 103, -81.69231, 0
98.81165, 17, 407, 103, -81.69231, 0
98.8317, 16, 408, 103, -81.69231, 0
98.85007, 17, 407, 103, -81.69231, 0
98.87152, 17, 407, 103, -81.69231, 0
98.89096, 17, 406, 103, -81.69231, 0
98.9072, 17, 404, 104, -81, 0
98.92841, 17, 404, 103, -81.69231, 0
98.94975, 17, 403, 104, -81, 0
98.9713, 17, 403, 104, -81, 0
98.99168, 17, 403, 104, -81, 0
99.0127, 17, 403, 104, -81, 0
99.03066, 17, 402, 104, -81, 0
99.05031, 17, 401, 104, -81, 0
99.07126, 17, 400, 106, -79.61539, 0
99.09011, 17, 398, 107, -78.92308, 180
99.1115, 16, 403, 91, -90, 180
99.12795, 14, 426, 65, -108, 180
99.1486, 16, 430, 64, -108.6923, 180
99.16758, 17, 439, 67, -106.6154, 180
99.18669, 18, 441, 78, -99, 180
99.20676, 17, 443, 87, -92.76923, 180
99.22779, 17, 441, 92, -89.30769, 180
99.24619, 17, 444, 107, -78.92308, 180
99.26527, 17, 444, 114, -74.07692, 180
99.28798, 17, 444, 121, -69.23077, 180
99.30824, 17, 442, 128, -64.38461, 180
99.32754, 17, 440, 130, -63, 180
99.34938, 17, 437, 131, -62.30769, 180
99.36518, 16, 438, 129, -63.69231, 180
99.38528, 17, 438, 127, -65.07692, 180
99.40573, 16, 439, 125, -66.46154, 180
99.42661, 16, 439, 126, -65.76923, 180
99.4473, 16, 442, 128, -64.38461, 180
99.46748, 16, 440, 128, -64.38461, 180
99.48485, 16, 439, 129, -63.69231, 180
99.50367, 15, 441, 125, -66.46154, 180
99.52433, 17, 440, 136, -58.84615, 180
99.54611, 17, 439, 138, -57.46154, 180
99.56616, 16, 438, 137, -58.15385, 180
99.58594, 16, 439, 139, -56.76923, 180
99.60247, 16, 440, 140, -56.07692, 180
99.62263, 16, 440, 140, -56.07692, 180
99.64323, 16, 439, 138, -57.46154, 180
99.6647, 16, 439, 144, -53.30769, 180
99.68146, 16, 440, 146, -51.92308, 180
99.70264, 16, 440, 150, -49.15385, 180
99.71832, 16, 439, 154, -46.38462, 180
99.73884, 17, 438, 156, -45, 180
99.76037, 17, 438, 156, -45, 180
99.78046, 15, 444, 156, -45, 180
99.80048, 15, 443, 157, -44.30769, 180
99.82095, 16, 439, 157, -44.30769, 180
99.83727, 16, 440, 158, -43.61538, 180
99.85793, 16, 440, 161, -41.53846, 180
99.87975, 17, 440, 162, -40.84615, 180
99.90118, 16, 440, 163, -40.15385, 180
99.92262, 16, 439, 163, -40.15385, 180
99.93835, 16, 440, 166, -38.07692, 180
99.95831, 16, 439, 169, -36, 180
99.97898, 17, 439, 171, -34.61538, 180
99.9997, 17, 439, 171, -34.61538, 180
100.0195, 16, 437, 170, -35.30769, 180
100.0405, 16, 438, 171, -34.61538, 180
100.0579, 16, 439, 172, -33.92308, 180
100.0772, 16, 440, 172, -33.92308, 180
100.0981, 16, 439, 172, -33.92308, 180
100.1185, 16, 440, 172, -33.92308, 180
100.14, 16, 440, 174, -32.53846, 180
100.1587, 17, 440, 176, -31.15385, 180
100.1767, 16, 441, 176, -31.15385, 180
100.1966, 17, 439, 176, -31.15385, 180
100.2144, 16, 442, 180, -28.38461, 180
100.2343, 16, 441, 182, -27, 180
100.2551, 17, 440, 185, -24.92308, 180
100.276, 16, 439, 188, -22.84615, 180
100.276: Grabbed object
100.2918, 17, 437, 189, -22.15385, 180
100.3131, 17, 439, 188, -22.84615, 180
100.3328, 16, 439, 188, -22.84615, 180
100.3563, 17, 439, 189, -22.15385, 180
100.3738, 16, 439, 188, -22.84615, 180
100.3949, 17, 439, 190, -21.46154, 180
100.4118, 17, 439, 190, -21.46154, 180
100.4308, 16, 439, 190, -21.46154, 180
100.4514, 16, 439, 191, -20.76923, 180
100.472, 17, 439, 191, -20.76923, 180
100.492, 17, 439, 192, -20.07692, 180
100.5142, 17, 440, 192, -20.07692, 180
100.5301, 17, 440, 193, -19.38461, 180
100.5498, 17, 440, 193, -19.38461, 180
100.5716, 16, 441, 192, -20.07692, 180
100.5905, 17, 441, 193, -19.38461, 180
100.6119, 17, 441, 195, -18, 180
100.6316, 17, 441, 195, -18, 180
100.648, 17, 441, 196, -17.30769, 180
100.6688, 17, 441, 197, -16.61539, 180
100.6894, 16, 440, 198, -15.92308, 180
100.7103, 17, 440, 198, -15.92308, 180
100.7304, 17, 440, 198, -15.92308, 180
100.7505, 17, 440, 198, -15.92308, 180
100.7676, 17, 440, 198, -15.92308, 180
100.7873, 17, 440, 198, -15.92308, 180
100.8083, 16, 440, 198, -15.92308, 180
100.829, 17, 440, 198, -15.92308, 180
100.8488, 17, 440, 198, -15.92308, 180
100.8691, 17, 440, 198, -15.92308, 180
100.8866, 17, 440, 198, -15.92308, 180
100.9063, 16, 440, 198, -15.92308, 180
100.9272, 17, 439, 198, -15.92308, 180
100.9473, 17, 440, 198, -15.92308, 180
100.9674, 17, 439, 198, -15.92308, 180
100.9889, 17, 440, 198, -15.92308, 180
101.0043, 17, 440, 198, -15.92308, 180
101.0248, 16, 440, 198, -15.92308, 180
101.0464, 17, 440, 198, -15.92308, 180
101.0661, 16, 440, 196, -17.30769, 180
101.0861, 17, 440, 199, -15.23077, 180
101.1067, 17, 440, 199, -15.23077, 180
101.123, 16, 440, 198, -15.92308, 180
101.1439, 17, 440, 198, -15.92308, 180
101.1641, 17, 440, 199, -15.23077, 180
101.1863, 17, 440, 199, -15.23077, 180
101.2064, 17, 440, 199, -15.23077, 180
101.2219, 17, 441, 199, -15.23077, 180
101.2418, 17, 441, 199, -15.23077, 180
101.2633, 17, 441, 198, -15.92308, 180
101.2831, 17, 441, 199, -15.23077, 180
101.3042, 17, 441, 199, -15.23077, 180
101.3239, 16, 442, 199, -15.23077, 180
101.3402, 17, 443, 199, -15.23077, 180
101.3611, 17, 443, 198, -15.92308, 180
101.3818, 17, 444, 198, -15.92308, 180
101.4019, 17, 444, 198, -15.92308, 180
101.4233, 17, 445, 198, -15.92308, 180
101.4465, 17, 445, 198, -15.92308, 180
101.4628, 17, 446, 198, -15.92308, 180
101.4826, 17, 446, 198, -15.92308, 180
101.5024, 17, 447, 197, -16.61539, 180
101.523, 17, 447, 197, -16.61539, 180
101.5417, 16, 447, 198, -15.92308, 180
101.5629, 17, 447, 198, -15.92308, 180
101.5792, 17, 447, 198, -15.92308, 180
101.6001, 17, 447, 198, -15.92308, 180
101.6195, 16, 447, 198, -15.92308, 180
101.6404, 17, 448, 198, -15.92308, 180
101.6606, 17, 448, 198, -15.92308, 180
101.6829, 17, 448, 198, -15.92308, 180
101.6972, 17, 448, 198, -15.92308, 180
101.7184, 17, 448, 198, -15.92308, 180
101.7377, 17, 448, 197, -16.61539, 180
101.7598, 17, 449, 198, -15.92308, 180
101.7792, 17, 449, 198, -15.92308, 180
101.7993, 17, 449, 198, -15.92308, 180
101.8166, 17, 447, 209, -8.307693, 180
101.8367, 18, 447, 209, -8.307693, 180
101.8574, 17, 448, 209, -8.307693, 180
101.8774, 17, 449, 210, -7.615385, 180
101.8974, 18, 448, 211, -6.923077, 180
101.9175, 17, 449, 210, -7.615385, 180
101.9341, 17, 454, 197, -16.61539, 180
101.9543, 16, 455, 197, -16.61539, 180
101.9753, 17, 456, 197, -16.61539, 0
101.9975, 16, 463, 164, -39.46154, 0
102.0163, 17, 460, 140, -56.07692, 0
102.0363, 18, 457, 126, -65.76923, 0
102.0532, 18, 454, 121, -69.23077, 0
102.0741, 18, 449, 118, -71.30769, 0
102.0941, 21, 443, 118, -71.30769, 0
102.1142, 21, 437, 120, -69.92308, 0
102.1374, 17, 435, 123, -67.84615, 0
102.158, 17, 433, 123, -67.84615, 0
102.174, 16, 436, 130, -63, 0
102.1965, 16, 431, 125, -66.46154, 0
102.2159, 16, 430, 123, -67.84615, 0
102.2353, 16, 430, 123, -67.84615, 0
102.2566, 16, 429, 121, -69.23077, 0
102.2776, 15, 433, 112, -75.46154, 0
102.2934, 15, 432, 110, -76.84615, 0
102.3123, 15, 430, 114, -74.07692, 0
102.3319, 19, 429, 111, -76.15385, 0
102.3524, 16, 429, 109, -77.53846, 0
102.3727, 16, 429, 108, -78.23077, 0
102.3937, 14, 433, 109, -77.53846, 0
102.4102, 16, 428, 104, -81, 0
102.431, 16, 427, 102, -82.38461, 0
102.431: Released object
102.4508, 15, 432, 106, -79.61539, 0
102.4724, 16, 427, 103, -81.69231, 0
102.4925, 16, 426, 99, -84.46154, 0
102.5128, 16, 426, 100, -83.76923, 0
102.5294, 16, 427, 98, -85.15385, 0
102.549, 16, 425, 98, -85.15385, 0
102.5695, 16, 425, 97, -85.84615, 0
102.5897, 16, 425, 95, -87.23077, 0
102.6107, 16, 423, 96, -86.53846, 0
102.6286, 16, 421, 97, -85.84615, 0
102.6479, 16, 423, 98, -85.15385, 0
102.668, 17, 423, 97, -85.84615, 0
102.6893, 17, 422, 97, -85.84615, 0
102.7102, 17, 422, 98, -85.15385, 0
102.73, 16, 419, 96, -86.53846, 0
102.7471, 16, 421, 98, -85.15385, 0
102.7663, 20, 421, 98, -85.15385, 0
102.7876, 16, 421, 97, -85.84615, 0
102.8071, 16, 419, 94, -87.92308, 0
102.8279, 17, 420, 96, -86.53846, 0
102.8484, 16, 419, 97, -85.84615, 0
102.8645, 16, 420, 96, -86.53846, 0
102.8846, 17, 420, 97, -85.84615, 0
102.906, 17, 419, 98, -85.15385, 0
102.9268, 16, 419, 98, -85.15385, 0
102.9472, 17, 419, 99, -84.46154, 0
102.9673, 17, 419, 99, -84.46154, 0
102.9834, 17, 419, 98, -85.15385, 0
103.0033, 17, 419, 97, -85.84615, 0
103.024, 17, 419, 97, -85.84615, 0
103.0452, 17, 418, 98, -85.15385, 0
103.0651, 17, 418, 98, -85.15385, 0
103.0857, 16, 418, 99, -84.46154, 0
103.1018, 17, 417, 99, -84.46154, 0
103.1225, 17, 417, 99, -84.46154, 0
103.1442, 17, 417, 99, -84.46154, 0
103.1642, 17, 416, 99, -84.46154, 0
103.1837, 17, 417, 99, -84.46154, 0
103.2041, 16, 416, 99, -84.46154, 0
103.2206, 17, 416, 99, -84.46154, 0
103.2415, 17, 416, 99, -84.46154, 0
103.2622, 17, 416, 99, -84.46154, 0
103.282, 17, 416, 99, -84.46154, 0
103.3025, 17, 416, 99, -84.46154, 0
103.3188, 17, 416, 99, -84.46154, 0
103.3395, 17, 416, 99, -84.46154, 0
103.3631, 17, 415, 99, -84.46154, 0
103.3811, 17, 416, 99, -84.46154, 0
103.4009, 16, 415, 99, -84.46154, 0
103.4215, 17, 415, 99, -84.46154, 0
103.4379, 16, 414, 99, -84.46154, 0
103.4584, 17, 415, 99, -84.46154, 0
103.4792, 17, 414, 99, -84.46154, 0
103.4993, 17, 414, 99, -84.46154, 0
103.5196, 17, 413, 99, -84.46154, 0
103.5401, 17, 413, 99, -84.46154, 0
103.5577, 17, 412, 99, -84.46154, 0
103.5779, 17, 411, 99, -84.46154, 0
103.5985, 17, 410, 99, -84.46154, 0
103.6179, 17, 409, 99, -84.46154, 0
103.6383, 17, 408, 99, -84.46154, 0
103.66, 17, 407, 99, -84.46154, 0
103.6768, 17, 407, 99, -84.46154, 0
103.6971, 17, 406, 99, -84.46154, 0
103.7172, 17, 405, 99, -84.46154, 0
103.7373, 17, 405, 100, -83.76923, 0
103.7574, 16, 405, 99, -84.46154, 0
103.7811, 17, 404, 99, -84.46154, 0
103.7958, 17, 403, 100, -83.76923, 0
103.8155, 17, 402, 99, -84.46154, 0
103.8355, 16, 402, 100, -83.76923, 0
103.8562, 17, 400, 100, -83.76923, 0
103.8764, 17, 399, 100, -83.76923, 180
103.8973, 16, 402, 78, -99, 180
103.9144, 15, 417, 59, -112.1538, 180
103.934, 17, 431, 58, -112.8462, 180
103.9537, 17, 439, 64, -108.6923, 180
103.9742, 18, 439, 70, -104.5385, 180
103.9976, 21, 442, 81, -96.92308, 180
104.0153, 17, 442, 92, -89.30769, 180
104.0316, 17, 445, 96, -86.53846, 180
104.052, 16, 442, 109, -77.53846, 180
104.0725, 17, 441, 111, -76.15385, 180
104.0929, 17, 441, 116, -72.69231, 180
104.1143, 16, 440, 119, -70.61539, 180
104.1308, 16, 439, 121, -69.23077, 180
104.1504, 16, 440, 122, -68.53846, 180
104.171, 15, 445, 124, -67.15385, 180
104.1912, 16, 440, 125, -66.46154, 180
104.2141, 16, 440, 127, -65.07692, 180
104.2322, 21, 441, 130, -63, 180
104.2489, 16, 440, 128, -64.38461, 180
104.2691, 16, 440, 137, -58.15385, 180
104.2897, 16, 440, 133, -60.92308, 180
104.3103, 16, 439, 141, -55.38462, 180
104.331, 16, 438, 141, -55.38462, 180
104.3511, 14, 449, 143, -54, 180
104.3677, 16, 440, 146, -51.92308, 180
104.3878, 16, 441, 147, -51.23077, 180
104.4088, 14, 448, 152, -47.76923, 180
104.4306, 16, 439, 156, -45, 180
104.4496, 17, 438, 156, -45, 180
104.4699, 16, 438, 157, -44.30769, 180
104.4869, 17, 438, 156, -45, 180
104.5066, 16, 439, 156, -45, 180
104.5285, 16, 440, 155, -45.69231, 180
104.5481, 16, 439, 155, -45.69231, 180
104.5682, 16, 440, 151, -48.46154, 180
104.5907, 15, 440, 151, -48.46154, 180
104.6074, 16, 440, 160, -42.23077, 180
104.6292, 16, 440, 161, -41.53846, 180
104.6507, 17, 438, 165, -38.76923, 180
104.6682, 15, 447, 167, -37.38462, 180
104.6892, 16, 439, 168, -36.69231, 180
104.7098, 16, 439, 169, -36, 180
104.7284, 16, 437, 170, -35.30769, 180
104.747, 16, 439, 169, -36, 180
104.7678, 16, 440, 169, -36, 180
104.7877, 16, 440, 171, -34.61538, 180
104.8065, 16, 440, 172, -33.92308, 180
104.8271, 16, 440, 173, -33.23077, 180
104.8438, 16, 440, 177, -30.46154, 180
104.8648, 17, 438, 181, -27.69231, 180
104.8833, 16, 437, 183, -26.30769, 180
104.9034, 16, 439, 185, -24.92308, 180
104.924, 16, 439, 186, -24.23077, 180
104.9402, 16, 438, 184, -25.61539, 180
104.9612, 16, 438, 185, -24.92308, 180
104.9812, 16, 438, 188, -22.84615, 180
104.9812: Grabbed object
105.0018, 16, 440, 190, -21.46154, 180
105.0228, 17, 439, 192, -20.07692, 180
105.0461, 16, 440, 192, -20.07692, 180
105.0642, 16, 441, 192, -20.07692, 180
105.083, 16, 440, 194, -18.69231, 180
105.1024, 16, 440, 197, -16.61539, 180
105.1226, 17, 440, 199, -15.23077, 180
105.144, 17, 439, 202, -13.15385, 180
105.1648, 17, 439, 203, -12.46154, 180
105.1811, 17, 438, 204, -11.76923, 180
105.2012, 17, 439, 205, -11.07692, 180
105.2218, 17, 439, 207, -9.692307, 180
105.2424, 17, 439, 207, -9.692307, 180
105.2631, 17, 439, 207, -9.692307, 180
105.2851, 17, 439, 207, -9.692307, 180
105.3007, 17, 439, 207, -9.692307, 180
105.3211, 17, 439, 206, -10.38461, 180
105.3397, 17, 439, 206, -10.38461, 180
105.3605, 17, 439, 207, -9.692307, 180
105.3819, 17, 439, 206, -10.38461, 180
105.4016, 16, 439, 206, -10.38461, 180
105.4183, 17, 439, 206, -10.38461, 180
105.4378, 17, 439, 206, -10.38461, 180
105.4587, 17, 439, 206, -10.38461, 180
105.48, 17, 439, 206, -10.38461, 180
105.5017, 17, 440, 206, -10.38461, 180
105.5201, 17, 440, 206, -10.38461, 180
105.537, 17, 440, 206, -10.38461, 180
105.5574, 17, 441, 206, -10.38461, 180
105.5774, 17, 441, 206, -10.38461, 180
105.5992, 17, 442, 206, -10.38461, 180
105.6187, 17, 444, 206, -10.38461, 180
105.639, 17, 444, 206, -10.38461, 180
105.6558, 17, 445, 205, -11.07692, 180
105.6762, 17, 446, 205, -11.07692, 180
105.6968, 17, 447, 205, -11.07692, 180
105.7185, 17, 448, 205, -11.07692, 180
105.7369, 17, 448, 205, -11.07692, 180
105.7578, 17, 446, 218, -2.076923, 180
105.7746, 18, 445, 219, -1.384615, 180
105.7961, 17, 446, 219, -1.384615, 180
105.8162, 17, 446, 219, -1.384615, 180
105.8344, 17, 445, 219, -1.384615, 180
105.8537, 18, 446, 219, -1.384615, 180
105.8741, 17, 446, 219, -1.384615, 180
105.8903, 17, 451, 205, -11.07692, 180
105.9111, 17, 450, 205, -11.07692, 180
105.9323, 17, 452, 205, -11.07692, 180
105.952, 17, 451, 205, -11.07692, 180
105.9728, 17, 452, 205, -11.07692, 180
105.9935, 17, 453, 205, -11.07692, 180
106.0102, 17, 453, 205, -11.07692, 180
106.0311, 17, 454, 205, -11.07692, 180
106.0507, 17, 455, 205, -11.07692, 180
106.0712, 17, 455, 207, -9.692307, 180
106.0915, 16, 454, 208, -9, 180
106.1129, 17, 455, 209, -8.307693, 180
106.1314, 17, 454, 211, -6.923077, 180
106.149, 17, 454, 211, -6.923077, 180
106.1694, 16, 454, 210, -7.615385, 180
106.1899, 18, 455, 208, -9, 180
106.2128, 17, 456, 207, -9.692307, 0
106.2341, 17, 462, 192, -20.07692, 0
106.2504, 16, 466, 154, -46.38462, 0
106.269, 18, 462, 131, -62.30769, 0
106.288, 19, 457, 127, -65.07692, 0
106.3086, 18, 450, 121, -69.23077, 0
106.3298, 19, 445, 118, -71.30769, 0
106.3502, 18, 438, 120, -69.92308, 0
106.3669, 18, 437, 128, -64.38461, 0
106.3868, 17, 436, 131, -62.30769, 0
106.4069, 17, 430, 132, -61.61538, 0
106.428, 17, 429, 131, -62.30769, 0
106.4474, 16, 430, 128, -64.38461, 0
106.4678, 16, 431, 126, -65.76923, 0
106.4852, 15, 431, 124, -67.15385, 0
106.5057, 15, 438, 122, -68.53846, 0
106.5266, 16, 432, 117, -72, 0
106.5474, 15, 432, 113, -74.76923, 0
106.5685, 15, 432, 109, -77.53846, 0
106.5842, 21, 432, 108, -78.23077, 0
106.6039, 16, 432, 104, -81, 0
106.6244, 15, 438, 104, -81, 0
106.6451, 16, 431, 101, -83.07692, 0
106.6451: Released object
106.6656, 15, 430, 97, -85.84615, 0
106.6863, 15, 434, 98, -85.15385, 0
106.702, 15, 428, 97, -85.84615, 0
106.7227, 16, 429, 95, -87.23077, 0
106.7433, 15, 434, 96, -86.53846, 0
106.7645, 14, 433, 95, -87.23077, 0
106.7855, 16, 428, 90, -90.69231, 0
106.8052, 16, 427, 86, -93.46154, 0
106.8216, 16, 425, 88, -92.07692, 0
106.842, 16, 424, 88, -92.07692, 0
106.8628, 16, 425, 85, -94.15385, 0
106.8817, 16, 425, 88, -92.07692, 0
106.9025, 16, 424, 88, -92.07692, 0
106.9226, 16, 423, 89, -91.38461, 0
106.9398, 24, 422, 91, -90, 0
106.9596, 16, 425, 91, -90, 0
106.9806, 16, 421, 91, -90, 0
107.0041, 17, 420, 92, -89.30769, 0
107.0235, 16, 419, 92, -89.30769, 0
107.044, 25, 414, 94, -87.92308, 0
107.061, 17, 418, 96, -86.53846, 0
107.0812, 17, 418, 96, -86.53846, 0
107.1009, 17, 418, 96, -86.53846, 0
107.1214, 17, 418, 96, -86.53846, 0
107.142, 17, 418, 96, -86.53846, 0
107.1625, 17, 417, 96, -86.53846, 0
107.1804, 17, 417, 96, -86.53846, 0
107.2002, 17, 417, 96, -86.53846, 0
107.2212, 17, 416, 96, -86.53846, 0
107.2399, 17, 415, 96, -86.53846, 0
107.2615, 17, 414, 96, -86.53846, 0
107.2778, 17, 415, 95, -87.23077, 0
107.2981, 17, 414, 96, -86.53846, 0
107.3184, 17, 413, 96, -86.53846, 0
107.3385, 17, 413, 96, -86.53846, 0
107.3591, 16, 412, 96, -86.53846, 0
107.3798, 17, 411, 96, -86.53846, 0
107.3972, 17, 411, 96, -86.53846, 0
107.4169, 16, 411, 96, -86.53846, 0
107.4382, 17, 410, 96, -86.53846, 0
107.4574, 17, 410, 96, -86.53846, 0
107.476, 17, 409, 97, -85.84615, 0
107.4971, 17, 409, 96, -86.53846, 0
107.5135, 17, 409, 97, -85.84615, 0
107.5357, 17, 409, 96, -86.53846, 0
107.5561, 16, 409, 96, -86.53846, 0
107.5774, 17, 409, 96, -86.53846, 0
107.5972, 17, 409, 96, -86.53846, 0
107.617, 17, 409, 96, -86.53846, 0
107.6349, 17, 408, 96, -86.53846, 0
107.6535, 17, 409, 96, -86.53846, 0
107.6745, 17, 410, 96, -86.53846, 0
107.6961, 17, 410, 96, -86.53846, 0
107.7163, 17, 409, 96, -86.53846, 0
107.7366, 17, 409, 96, -86.53846, 0
107.7525, 16, 410, 96, -86.53846, 0
107.7724, 16, 410, 96, -86.53846, 0
107.7935, 17, 410, 96, -86.53846, 0
107.8148, 17, 409, 96, -86.53846, 0
107.8354, 17, 409, 96, -86.53846, 0
107.8567, 17, 409, 96, -86.53846, 0
107.8732, 17, 409, 96, -86.53846, 0
107.8899, 17, 409, 96, -86.53846, 0
107.9099, 17, 408, 96, -86.53846, 0
107.9305, 17, 408, 96, -86.53846, 0
107.9507, 16, 408, 96, -86.53846, 0
107.9683, 17, 408, 96, -86.53846, 0
107.9873, 17, 408, 96, -86.53846, 0
108.0081, 17, 408, 96, -86.53846, 0
108.0299, 17, 407, 97, -85.84615, 0
108.049, 16, 406, 96, -86.53846, 0
108.0701, 16, 406, 97, -85.84615, 0
108.0864, 16, 405, 96, -86.53846, 0
108.1064, 17, 404, 96, -86.53846, 0
108.1268, 17, 404, 96, -86.53846, 0
108.1476, 17, 403, 97, -85.84615, 0
108.1679, 17, 402, 97, -85.84615, 0
108.188, 17, 400, 97, -85.84615, 0
108.2048, 17, 400, 97, -85.84615, 0
108.2251, 16, 399, 97, -85.84615, 180
108.2463, 19, 411, 66, -107.3077, 180
108.2664, 16, 425, 55, -114.9231, 180
108.2875, 17, 435, 57, -113.5385, 180
108.3069, 18, 439, 66, -107.3077, 180
108.3235, 18, 439, 73, -102.4615, 180
108.3441, 17, 442, 83, -95.53846, 180
108.3642, 16, 443, 92, -89.30769, 180
108.3847, 22, 443, 103, -81.69231, 180
108.4055, 17, 443, 109, -77.53846, 180
108.4257, 17, 443, 113, -74.76923, 180
108.4421, 16, 442, 117, -72, 180
108.4654, 16, 441, 119, -70.61539, 180
108.4858, 16, 446, 121, -69.23077, 180
108.5069, 16, 440, 122, -68.53846, 180
108.5261, 16, 438, 123, -67.84615, 180
108.5473, 16, 439, 124, -67.15385, 180
108.5633, 14, 440, 123, -67.84615, 180
108.5833, 16, 439, 123, -67.84615, 180
108.6045, 16, 439, 124, -67.15385, 180
108.6241, 16, 443, 121, -69.23077, 180
108.6455, 16, 440, 129, -63.69231, 180
108.6678, 16, 438, 130, -63, 180
108.6826, 16, 439, 129, -63.69231, 180
108.7023, 14, 445, 136, -58.84615, 180
108.7241, 15, 444, 139, -56.76923, 180
108.7436, 16, 439, 139, -56.76923, 180
108.7644, 16, 439, 139, -56.76923, 180
108.7814, 14, 447, 142, -54.69231, 180
108.8018, 16, 440, 145, -52.61538, 180
108.8213, 17, 438, 150, -49.15385, 180
108.8427, 16, 438, 152, -47.76923, 180
108.8605, 16, 440, 151, -48.46154, 180
108.8815, 16, 438, 150, -49.15385, 180
108.8983, 16, 438, 151, -48.46154, 180
108.9179, 16, 439, 153, -47.07692, 180
108.9384, 16, 440, 156, -45, 180
108.9586, 16, 439, 158, -43.61538, 180
108.9797, 16, 440, 164, -39.46154, 180
108.9994, 16, 439, 167, -37.38462, 180
109.016, 16, 440, 169, -36, 180
109.0358, 16, 439, 171, -34.61538, 180
109.0564, 16, 439, 171, -34.61538, 180
109.0771, 16, 440, 171, -34.61538, 180
109.0976, 14, 448, 171, -34.61538, 180
109.1179, 16, 438, 169, -36, 180
109.1345, 16, 440, 173, -33.23077, 180
109.1561, 16, 440, 175, -31.84615, 180
109.1753, 16, 438, 176, -31.15385, 180
109.1967, 17, 440, 181, -27.69231, 180
109.2185, 25, 439, 186, -24.23077, 180
109.2389, 17, 439, 187, -23.53846, 180
109.2389: Grabbed object
109.2561, 16, 438, 188, -22.84615, 180
109.2769, 16, 439, 187, -23.53846, 180
109.2974, 16, 438, 189, -22.15385, 180
109.3171, 17, 439, 189, -22.15385, 180
109.3371, 17, 439, 189, -22.15385, 180
109.3594, 16, 440, 190, -21.46154, 180
109.3762, 17, 440, 191, -20.76923, 180
109.3952, 16, 439, 191, -20.76923, 180
109.416, 17, 440, 191, -20.76923, 180
109.4372, 16, 440, 192, -20.07692, 180
109.4565, 16, 441, 193, -19.38461, 180
109.4771, 16, 441, 193, -19.38461, 180
109.4939, 17, 441, 195, -18, 180
109.5138, 17, 441, 195, -18, 180
109.5337, 22, 438, 197, -16.61539, 180
109.5525, 17, 440, 199, -15.23077, 180
109.5735, 17, 440, 196, -17.30769, 180
109.5934, 16, 444, 199, -15.23077, 180
109.6105, 17, 441, 199, -15.23077, 180
109.6306, 17, 441, 199, -15.23077, 180
109.6507, 17, 441, 199, -15.23077, 180
109.6708, 17, 440, 199, -15.23077, 180
109.6914, 17, 440, 201, -13.84615, 180
109.7075, 17, 440, 201, -13.84615, 180
109.729, 17, 440, 201, -13.84615, 180
109.7487, 17, 440, 200, -14.53846, 180
109.7691, 17, 440, 201, -13.84615, 180
109.7915, 16, 440, 201, -13.84615, 180
109.8101, 17, 439, 201, -13.84615, 180
109.8278, 17, 440, 200, -14.53846, 180
109.8477, 17, 440, 200, -14.53846, 180
109.8681, 16, 440, 200, -14.53846, 180
109.8882, 17, 439, 200, -14.53846, 180
109.9085, 17, 439, 201, -13.84615, 180
109.9307, 17, 440, 201, -13.84615, 180
109.947, 17, 439, 200, -14.53846, 180
109.9663, 16, 440, 200, -14.53846, 180
109.9862, 17, 440, 200, -14.53846, 180
110.0078, 17, 440, 201, -13.84615, 180
110.0275, 17, 440, 200, -14.53846, 180
110.0477, 16, 440, 201, -13.84615, 180
110.0643, 17, 441, 200, -14.53846, 180
110.0847, 17, 442, 201, -13.84615, 180
110.1053, 17, 442, 200, -14.53846, 180
110.1259, 17, 442, 200, -14.53846, 180
110.1477, 17, 443, 200, -14.53846, 180
110.1663, 17, 444, 200, -14.53846, 180
110.1829, 17, 446, 200, -14.53846, 180
110.2033, 17, 445, 210, -7.615385, 180
110.2251, 18, 447, 210, -7.615385, 180
110.2446, 17, 447, 211, -6.923077, 180
110.2651, 17, 448, 212, -6.230769, 180
110.286, 17, 452, 199, -15.23077, 180
110.3015, 17, 453, 198, -15.92308, 180
110.3222, 17, 453, 198, -15.92308, 180
110.3425, 17, 454, 198, -15.92308, 180
110.3638, 17, 454, 199, -15.23077, 180
110.3837, 17, 455, 199, -15.23077, 180
110.4041, 17, 455, 199, -15.23077, 180
110.4212, 16, 455, 201, -13.84615, 180
110.4408, 17, 456, 198, -15.92308, 0
110.4621, 16, 461, 170, -35.30769, 0
110.4819, 16, 459, 142, -54.69231, 0
110.5023, 17, 453, 130, -63, 0
110.5226, 18, 451, 126, -65.76923, 0
110.5393, 18, 445, 125, -66.46154, 0
110.5596, 17, 441, 123, -67.84615, 0
110.5808, 16, 440, 125, -66.46154, 0
110.6008, 17, 431, 132, -61.61538, 0
110.624, 17, 427, 137, -58.15385, 0
110.6474, 17, 427, 141, -55.38462, 0
110.6636, 16, 428, 140, -56.07692, 0
110.6825, 15, 434, 140, -56.07692, 0
110.7021, 16, 428, 137, -58.15385, 0
110.7222, 16, 428, 133, -60.92308, 0
110.7427, 14, 436, 132, -61.61538, 0
110.7635, 16, 429, 127, -65.07692, 0
110.7809, 21, 429, 126, -65.76923, 0
110.8005, 16, 431, 118, -71.30769, 0
110.8216, 16, 431, 120, -69.92308, 0
110.842, 16, 430, 115, -73.38461, 0
110.8638, 19, 430, 115, -73.38461, 0
110.8839, 16, 430, 111, -76.15385, 0
110.8987, 15, 438, 111, -76.15385, 0
110.9166, 16, 430, 108, -78.23077, 0
110.9364, 16, 431, 106, -79.61539, 0
110.9571, 16, 430, 103, -81.69231, 0
110.9774, 16, 430, 101, -83.07692, 0
110.9774: Released object
110.9949, 16, 429, 100, -83.76923, 0
111.0143, 16, 429, 94, -87.92308, 0
111.0346, 16, 429, 97, -85.84615, 0
111.0557, 15, 432, 91, -90, 0
111.077, 16, 428, 89, -91.38461, 0
111.097, 16, 427, 93, -88.61539, 0
111.1134, 16, 425, 90, -90.69231, 0
111.1329, 15, 432, 96, -86.53846, 0
111.1534, 16, 423, 91, -90, 0
111.174, 16, 422, 96, -86.53846, 0
111.1954, 16, 423, 96, -86.53846, 0
111.2149, 16, 423, 96, -86.53846, 0
111.2313, 16, 422, 97, -85.84615, 0
111.2517, 16, 421, 97, -85.84615, 0
111.2727, 16, 421, 97, -85.84615, 0
111.2945, 16, 420, 97, -85.84615, 0
111.3146, 17, 420, 97, -85.84615, 0
111.3356, 17, 418, 99, -84.46154, 0
111.3521, 17, 419, 99, -84.46154, 0
111.3708, 17, 418, 100, -83.76923, 0
111.3929, 17, 419, 99, -84.46154, 0
111.4127, 17, 418, 100, -83.76923, 0
111.432, 16, 418, 100, -83.76923, 0
111.4524, 17, 417, 100, -83.76923, 0
111.4692, 16, 418, 100, -83.76923, 0
111.4896, 17, 418, 100, -83.76923, 0
111.5112, 17, 418, 100, -83.76923, 0
111.5308, 17, 417, 101, -83.07692, 0
111.5511, 17, 417, 100, -83.76923, 0
111.5714, 17, 417, 100, -83.76923, 0
111.5879, 17, 416, 100, -83.76923, 0
111.6085, 17, 416, 100, -83.76923, 0
111.6298, 17, 417, 100, -83.76923, 0
111.6493, 17, 416, 100, -83.76923, 0
111.6698, 17, 416, 100, -83.76923, 0
111.6904, 17, 416, 100, -83.76923, 0
111.7078, 17, 416, 100, -83.76923, 0
111.7271, 17, 415, 100, -83.76923, 0
111.7477, 17, 415, 100, -83.76923, 0
111.7679, 17, 415, 100, -83.76923, 0
111.7883, 17, 414, 100, -83.76923, 0
111.8049, 17, 415, 100, -83.76923, 0
111.8258, 17, 414, 100, -83.76923, 0
111.8468, 17, 414, 100, -83.76923, 0
111.866, 17, 413, 100, -83.76923, 0
111.8873, 17, 414, 100, -83.76923, 0
111.9077, 16, 413, 100, -83.76923, 0
111.9263, 16, 413, 100, -83.76923, 0
111.9441, 17, 413, 100, -83.76923, 0
111.9645, 16, 413, 100, -83.76923, 0
111.9851, 17, 412, 100, -83.76923, 0
112.0058, 17, 412, 100, -83.76923, 0
112.0264, 16, 412, 100, -83.76923, 0
112.0424, 17, 412, 100, -83.76923, 0
112.0637, 17, 411, 100, -83.76923, 0
112.0835, 17, 412, 101, -83.07692, 0
112.1036, 17, 411, 101, -83.07692, 0
112.1242, 17, 411, 100, -83.76923, 0
112.1462, 17, 410, 100, -83.76923, 0
112.1618, 16, 410, 100, -83.76923, 0
112.1816, 17, 411, 100, -83.76923, 0
112.2021, 17, 412, 100, -83.76923, 0
112.2226, 17, 411, 101, -83.07692, 0
112.2466, 17, 411, 101, -83.07692, 0
112.2665, 17, 411, 101, -83.07692, 0
112.2821, 17, 412, 100, -83.76923, 0
112.3025, 16, 412, 100, -83.76923, 0
112.3229, 17, 412, 100, -83.76923, 0
112.3437, 16, 412, 100, -83.76923, 0
112.3669, 17, 411, 100, -83.76923, 0
112.3845, 17, 411, 100, -83.76923, 0
112.4011, 16, 412, 100, -83.76923, 0
112.4212, 17, 411, 100, -83.76923, 0
112.4417, 16, 411, 100, -83.76923, 0
112.4624, 17, 411, 100, -83.76923, 0
112.4833, 17, 409, 100, -83.76923, 0
112.4995, 16, 411, 100, -83.76923, 0
112.5179, 17, 410, 100, -83.76923, 0
112.5383, 17, 410, 100, -83.76923, 0
112.5589, 17, 410, 100, -83.76923, 0
112.5812, 17, 409, 100, -83.76923, 0
112.5999, 17, 408, 101, -83.07692, 0
112.6164, 16, 407, 101, -83.07692, 0
112.6366, 16, 406, 101, -83.07692, 0
112.6573, 16, 405, 101, -83.07692, 0
112.6777, 16, 404, 101, -83.07692, 0
112.6982, 17, 404, 101, -83.07692, 0
112.7188, 17, 403, 101, -83.07692, 0
112.7353, 17, 403, 101, -83.07692, 0
112.7556, 17, 402, 101, -83.07692, 0
112.7771, 17, 402, 101, -83.07692, 0
112.7984, 16, 401, 101, -83.07692, 0
112.8168, 17, 400, 103, -81.69231, 0
112.8375, 17, 401, 103, -81.69231, 0
112.8549, 17, 400, 102, -82.38461, 0
112.874, 17, 400, 102, -82.38461, 0
112.8948, 16, 399, 102, -82.38461, 180
112.9149, 17, 395, 100, -83.76923, 180
112.9358, 16, 413, 67, -106.6154, 180
112.9558, 17, 428, 58, -112.8462, 180
112.9719, 18, 434, 63, -109.3846, 180
112.9925, 18, 439, 70, -104.5385, 180
113.0159, 18, 439, 80, -97.61539, 180
113.0334, 17, 441, 87, -92.76923, 180
113.0538, 18, 442, 98, -85.15385, 180
113.0755, 17, 443, 105, -80.30769, 180
113.0908, 17, 443, 114, -74.07692, 180
113.1121, 17, 442, 120, -69.92308, 180
113.1317, 15, 447, 123, -67.84615, 180
113.1521, 16, 441, 115, -73.38461, 180
113.1725, 16, 438, 123, -67.84615, 180
113.1932, 16, 440, 124, -67.15385, 180
113.211, 16, 440, 125, -66.46154, 180
113.2307, 16, 440, 129, -63.69231, 180
113.2504, 17, 439, 131, -62.30769, 180
113.2708, 19, 440, 135, -59.53846, 180
113.2942, 16, 440, 135, -59.53846, 180
113.3114, 16, 441, 134, -60.23077, 180
113.3317, 16, 441, 142, -54.69231, 180
113.3513, 16, 440, 146, -51.92308, 180
113.3719, 16, 438, 149, -49.84615, 180
113.3904, 16, 439, 150, -49.15385, 180
113.4112, 16, 440, 151, -48.46154, 180
113.4295, 16, 440, 152, -47.76923, 180
113.4486, 16, 440, 153, -47.07692, 180
113.4683, 16, 440, 156, -45, 180
113.4886, 16, 439, 154, -46.38462, 180
113.5098, 16, 439, 160, -42.23077, 180
113.5307, 16, 440, 165, -38.76923, 180
113.5477, 16, 439, 167, -37.38462, 180
113.5666, 16, 440, 169, -36, 180
113.5871, 16, 440, 163, -40.15385, 180
113.6077, 16, 440, 169, -36, 180
113.6282, 14, 448, 170, -35.30769, 180
113.6502, 16, 441, 171, -34.61538, 180
113.6661, 16, 440, 173, -33.23077, 180
113.6861, 15, 441, 175, -31.84615, 180
113.7072, 16, 441, 178, -29.76923, 180
113.7268, 15, 440, 175, -31.84615, 180
113.7476, 16, 439, 184, -25.61539, 180
113.7676, 17, 439, 186, -24.23077, 180
113.7841, 16, 440, 186, -24.23077, 180
113.8043, 16, 440, 187, -23.53846, 180
113.8043: Grabbed object
113.8317, 17, 440, 187, -23.53846, 180
113.8466, 16, 441, 187, -23.53846, 180
113.8693, 17, 440, 188, -22.84615, 180
113.8867, 16, 439, 186, -24.23077, 180
113.9032, 16, 441, 190, -21.46154, 180
113.9222, 15, 444, 182, -27, 180
113.9428, 16, 441, 193, -19.38461, 180
113.964, 17, 441, 195, -18, 180
113.9835, 17, 440, 196, -17.30769, 180
114.0041, 15, 450, 197, -16.61539, 180
114.0212, 16, 441, 196, -17.30769, 180
114.0418, 17, 441, 197, -16.61539, 180
114.0628, 20, 439, 198, -15.92308, 180
114.0837, 17, 441, 198, -15.92308, 180
114.1033, 17, 441, 200, -14.53846, 180
114.1236, 17, 441, 200, -14.53846, 180
114.1446, 16, 441, 201, -13.84615, 180
114.1614, 16, 441, 201, -13.84615, 180
114.1818, 14, 441, 201, -13.84615, 180
114.2014, 17, 441, 201, -13.84615, 180
114.2219, 17, 441, 203, -12.46154, 180
114.2423, 17, 441, 203, -12.46154, 180
114.2589, 17, 441, 202, -13.15385, 180
114.28, 17, 441, 202, -13.15385, 180
114.3008, 17, 441, 203, -12.46154, 180
114.3203, 18, 441, 203, -12.46154, 180
114.3407, 17, 442, 203, -12.46154, 180
114.3571, 17, 442, 203, -12.46154, 180
114.3788, 17, 442, 203, -12.46154, 180
114.4004, 17, 443, 203, -12.46154, 180
114.419, 17, 443, 203, -12.46154, 180
114.4399, 16, 442, 203, -12.46154, 180
114.4599, 16, 443, 203, -12.46154, 180
114.4774, 16, 444, 202, -13.15385, 180
114.4992, 17, 444, 202, -13.15385, 180
114.5182, 17, 444, 202, -13.15385, 180
114.5368, 17, 444, 202, -13.15385, 180
114.5585, 17, 444, 202, -13.15385, 180
114.5786, 16, 445, 201, -13.84615, 180
114.5959, 16, 446, 202, -13.15385, 180
114.6153, 16, 445, 202, -13.15385, 180
114.635, 17, 445, 202, -13.15385, 180
114.6569, 16, 445, 202, -13.15385, 180
114.6767, 17, 445, 202, -13.15385, 180
114.6975, 17, 445, 202, -13.15385, 180
114.7136, 16, 446, 202, -13.15385, 180
114.7341, 17, 445, 202, -13.15385, 180
114.7538, 17, 446, 202, -13.15385, 180
114.7741, 17, 446, 202, -13.15385, 180
114.7954, 17, 446, 202, -13.15385, 180
114.8152, 17, 446, 202, -13.15385, 180
114.8315, 17, 447, 201, -13.84615, 180
114.8518, 17, 446, 201, -13.84615, 180
114.8725, 17, 447, 201, -13.84615, 180
114.8928, 17, 448, 201, -13.84615, 180
114.9142, 17, 448, 201, -13.84615, 180
114.9348, 17, 448, 201, -13.84615, 180
114.9502, 17, 445, 214, -4.846154, 180
114.9707, 17, 447, 214, -4.846154, 180
114.9911, 18, 448, 214, -4.846154, 180
115.0124, 18, 448, 214, -4.846154, 180
115.0321, 16, 452, 201, -13.84615, 180
115.0525, 16, 453, 201, -13.84615, 180
115.069, 16, 454, 201, -13.84615, 180
115.0894, 17, 455, 201, -13.84615, 180
115.11, 17, 455, 201, -13.84615, 180
115.1309, 17, 455, 202, -13.15385, 180
115.1518, 17, 455, 203, -12.46154, 180
115.1717, 17, 457, 200, -14.53846, 0
115.1878, 15, 476, 135, -59.53846, 0
115.2084, 16, 460, 143, -54, 0
115.2295, 17, 456, 130, -63, 0
115.2494, 18, 451, 127, -65.07692, 0
115.27, 17, 446, 123, -67.84615, 0
115.29, 17, 441, 126, -65.76923, 0
115.3063, 17, 436, 130, -63, 0
115.3274, 17, 432, 135, -59.53846, 0
115.3477, 21, 429, 137, -58.15385, 0
115.3688, 17, 429, 138, -57.46154, 0
115.3903, 16, 436, 138, -57.46154, 0
115.4108, 16, 429, 135, -59.53846, 0
115.4279, 21, 429, 133, -60.92308, 0
115.4475, 17, 430, 129, -63.69231, 0
115.467, 15, 433, 127, -65.07692, 0
115.4876, 16, 430, 121, -69.23077, 0
115.509, 14, 438, 123, -67.84615, 0
115.5254, 15, 432, 114, -74.07692, 0
115.5449, 16, 430, 117, -72, 0
115.5647, 15, 430, 116, -72.69231, 0
115.5862, 15, 431, 114, -74.07692, 0
115.606, 16, 430, 112, -75.46154, 0
