UA-Ange: 0, ForearmStretched: 239, Forearm: 110, LeftArm? Yes
Time, EMG-Signal, Force-Value, Elbow-Angle, Transformed-Angle, MotorTarget
23.18526, 278, 418, 148, -63.48837, 0
23.18526, 282, 418, 148, -63.48837, 0
23.20527, 280, 418, 148, -63.48837, 0
23.23641, 274, 419, 148, -63.48837, 0
23.25174, 270, 419, 148, -63.48837, 0
23.26669, 268, 419, 148, -63.48837, 0
23.28756, 270, 419, 148, -63.48837, 0
23.30207, 272, 419, 148, -63.48837, 0
23.31784, 272, 418, 148, -63.48837, 0
23.33704, 271, 418, 148, -63.48837, 0
23.34971, 1, 4609, 41876, 29049.07, 65280
23.36728, 296, 418, 148, -63.48837, 0
23.3839, 303, 418, 148, -63.48837, 0
23.39892, 315, 418, 148, -63.48837, 0
23.41323, 322, 418, 148, -63.48837, 0
23.42941, 332, 419, 148, -63.48837, 0
23.4451, 342, 419, 148, -63.48837, 0
23.46148, 349, 419, 148, -63.48837, 0
23.47488, 355, 418, 148, -63.48837, 0
23.48951, 366, 419, 148, -63.48837, 0
23.50715, 378, 419, 148, -63.48837, 0
23.5222, 391, 419, 148, -63.48837, 0
23.5367, 403, 419, 148, -63.48837, 0
23.55431, 410, 419, 148, -63.48837, 0
23.56846, 419, 418, 148, -63.48837, 0
23.58316, 427, 418, 148, -63.48837, 0
23.59968, 434, 418, 148, -63.48837, 0
23.61611, 436, 417, 148, -63.48837, 0
23.62826, 437, 417, 148, -63.48837, 0
23.64626, 440, 416, 148, -63.48837, 0
23.66465, 445, 416, 148, -63.48837, 0
23.67904, 451, 415, 148, -63.48837, 0
23.69482, 452, 415, 148, -63.48837, 0
23.7087, 451, 415, 148, -63.48837, 0
23.72289, 452, 415, 148, -63.48837, 0
23.73854, 450, 414, 149, -62.7907, 0
23.75257, 453, 414, 149, -62.7907, 0
23.76724, 454, 414, 149, -62.7907, 0
23.78102, 458, 414, 149, -62.7907, 0
23.79763, 460, 413, 149, -62.7907, 0
23.81071, 466, 414, 149, -62.7907, 0
23.82767, 474, 414, 149, -62.7907, 0
23.84271, 477, 415, 149, -62.7907, 0
23.85792, 481, 416, 149, -62.7907, 0
23.87175, 483, 416, 149, -62.7907, 0
23.88612, 486, 416, 149, -62.7907, 0
23.90041, 489, 417, 148, -63.48837, 0
23.917, 496, 417, 148, -63.48837, 0
23.9297, 499, 418, 148, -63.48837, 0
23.94469, 505, 418, 148, -63.48837, 0
23.95945, 512, 418, 148, -63.48837, 0
23.97551, 522, 418, 148, -63.48837, 0
23.98798, 538, 418, 148, -63.48837, 0
24.00177, 542, 417, 148, -63.48837, 0
24.01666, 549, 418, 148, -63.48837, 0
24.03835, 546, 417, 148, -63.48837, 0
24.05075, 546, 417, 148, -63.48837, 0
24.06924, 542, 418, 148, -63.48837, 0
24.08223, 536, 418, 148, -63.48837, 0
24.09871, 527, 417, 148, -63.48837, 0
24.1134, 517, 417, 148, -63.48837, 0
24.13001, 514, 418, 148, -63.48837, 0
24.16378, 519, 418, 148, -63.48837, 0
24.17202, 525, 417, 148, -63.48837, 0
24.18506, 525, 418, 148, -63.48837, 0
24.20018, 518, 417, 148, -63.48837, 0
24.22632, 507, 418, 148, -63.48837, 0
24.24208, 501, 418, 148, -63.48837, 0
24.26013, 494, 418, 148, -63.48837, 0
24.27543, 489, 418, 148, -63.48837, 0
24.29058, 483, 419, 148, -63.48837, 0
24.30681, 472, 419, 148, -63.48837, 0
24.32405, 465, 419, 148, -63.48837, 0
24.35603, 456, 419, 148, -63.48837, 0
24.36879, 449, 419, 148, -63.48837, 0
24.3838, 444, 418, 148, -63.48837, 0
24.40409, 437, 419, 148, -63.48837, 0
24.42073, 433, 419, 148, -63.48837, 0
24.44043, 429, 419, 148, -63.48837, 0
24.46064, 422, 419, 148, -63.48837, 0
24.48194, 420, 419, 148, -63.48837, 0
24.5019, 416, 419, 148, -63.48837, 0
24.52332, 414, 420, 148, -63.48837, 0
24.5388, 406, 420, 148, -63.48837, 0
24.55972, 400, 420, 148, -63.48837, 0
24.58108, 395, 420, 148, -63.48837, 0
24.60139, 390, 419, 148, -63.48837, 0
24.6201, 389, 420, 148, -63.48837, 0
24.6416, 383, 418, 148, -63.48837, 0
24.6599, 376, 419, 148, -63.48837, 0
24.67867, 376, 419, 147, -64.18604, 0
24.69906, 376, 419, 148, -63.48837, 0
24.71892, 375, 419, 148, -63.48837, 0
24.73975, 372, 419, 148, -63.48837, 0
24.76132, 368, 419, 148, -63.48837, 0
24.78134, 361, 419, 148, -63.48837, 0
24.79617, 360, 420, 148, -63.48837, 0
24.817, 357, 419, 148, -63.48837, 0
24.83791, 351, 419, 148, -63.48837, 0
24.85835, 349, 419, 148, -63.48837, 0
24.87851, 342, 419, 148, -63.48837, 0
24.89948, 338, 420, 148, -63.48837, 0
24.91591, 333, 420, 148, -63.48837, 0
24.93572, 331, 419, 148, -63.48837, 0
24.95681, 329, 420, 148, -63.48837, 0
24.97738, 323, 420, 148, -63.48837, 0
24.99807, 315, 420, 148, -63.48837, 0
25.01668, 305, 420, 148, -63.48837, 0
25.03379, 295, 420, 147, -64.18604, 0
25.05441, 286, 420, 147, -64.18604, 0
25.07412, 280, 420, 147, -64.18604, 0
25.09628, 276, 421, 148, -63.48837, 0
25.1158, 272, 421, 148, -63.48837, 0
25.13608, 268, 421, 148, -63.48837, 0
25.15607, 265, 420, 147, -64.18604, 0
25.17193, 262, 420, 147, -64.18604, 0
25.19375, 262, 421, 147, -64.18604, 0
25.21422, 254, 421, 147, -64.18604, 0
25.23376, 253, 421, 147, -64.18604, 0
25.25512, 248, 421, 147, -64.18604, 0
25.28244, 240, 421, 147, -64.18604, 0
25.29571, 230, 421, 148, -63.48837, 0
25.31228, 219, 421, 147, -64.18604, 0
25.33155, 206, 420, 147, -64.18604, 0
25.35422, 195, 421, 147, -64.18604, 0
25.37383, 183, 421, 147, -64.18604, 0
25.39535, 173, 421, 147, -64.18604, 0
25.4095, 162, 421, 147, -64.18604, 0
25.42948, 156, 421, 147, -64.18604, 0
25.45021, 146, 422, 147, -64.18604, 0
25.4705, 139, 421, 147, -64.18604, 180
25.49106, 130, 422, 145, -65.5814, 180
25.51372, 122, 430, 122, -81.62791, 180
25.53057, 114, 442, 117, -85.11628, 180
25.5483, 120, 442, 118, -84.4186, 180
25.5687, 123, 447, 123, -80.93023, 180
25.58946, 124, 452, 133, -73.95349, 180
25.61344, 122, 446, 143, -66.97675, 180
25.63059, 118, 445, 148, -63.48837, 180
25.64701, 116, 445, 147, -64.18604, 180
25.66759, 117, 446, 156, -57.90698, 180
25.68756, 119, 446, 160, -55.11628, 180
25.70859, 122, 444, 163, -53.02325, 180
25.72894, 127, 444, 164, -52.32558, 180
25.74984, 127, 444, 165, -51.62791, 180
25.76994, 127, 444, 165, -51.62791, 180
25.78582, 131, 444, 164, -52.32558, 180
25.80972, 132, 444, 163, -53.02325, 180
25.83028, 129, 446, 156, -57.90698, 180
25.84761, 128, 445, 164, -52.32558, 180
25.86777, 138, 444, 167, -50.23256, 180
25.88814, 143, 444, 171, -47.44186, 180
25.90604, 144, 443, 173, -46.04651, 180
25.92691, 143, 443, 173, -46.04651, 180
25.94647, 140, 443, 173, -46.04651, 180
25.96667, 140, 443, 173, -46.04651, 180
25.98635, 140, 444, 173, -46.04651, 180
26.00623, 138, 443, 173, -46.04651, 180
26.02391, 138, 442, 173, -46.04651, 180
26.04594, 138, 442, 173, -46.04651, 180
26.06381, 133, 443, 173, -46.04651, 180
26.08528, 139, 442, 173, -46.04651, 180
26.10477, 137, 442, 173, -46.04651, 180
26.12564, 131, 442, 173, -46.04651, 180
26.14602, 125, 442, 173, -46.04651, 180
26.16385, 122, 442, 173, -46.04651, 180
26.18431, 127, 442, 173, -46.04651, 180
26.20387, 126, 443, 173, -46.04651, 180
26.22526, 127, 442, 173, -46.04651, 180
26.24963, 131, 442, 173, -46.04651, 180
26.26614, 130, 442, 173, -46.04651, 180
26.28862, 127, 442, 173, -46.04651, 180
26.30442, 128, 442, 173, -46.04651, 180
26.32483, 126, 442, 173, -46.04651, 180
26.34374, 130, 441, 173, -46.04651, 180
26.3648, 129, 441, 173, -46.04651, 180
26.38603, 121, 442, 173, -46.04651, 180
26.40254, 118, 442, 173, -46.04651, 180
26.42332, 112, 442, 173, -46.04651, 180
26.44574, 114, 442, 173, -46.04651, 180
26.4684, 108, 442, 173, -46.04651, 180
26.48329, 107, 442, 173, -46.04651, 180
26.50354, 106, 442, 173, -46.04651, 180
26.52507, 103, 442, 173, -46.04651, 180
26.53968, 105, 442, 173, -46.04651, 180
26.56014, 102, 442, 173, -46.04651, 180
26.58053, 104, 442, 173, -46.04651, 180
26.60143, 97, 442, 173, -46.04651, 180
26.62239, 95, 442, 173, -46.04651, 180
26.64403, 91, 442, 173, -46.04651, 180
26.6589, 89, 442, 173, -46.04651, 180
26.68039, 86, 442, 173, -46.04651, 180
26.70005, 87, 442, 173, -46.04651, 180
26.72015, 82, 442, 173, -46.04651, 180
26.7402, 79, 442, 173, -46.04651, 180
26.76139, 75, 442, 173, -46.04651, 180
26.78112, 78, 442, 173, -46.04651, 180
26.79744, 77, 442, 173, -46.04651, 180
26.8178, 78, 443, 173, -46.04651, 180
26.83846, 79, 442, 173, -46.04651, 180
26.85854, 79, 442, 173, -46.04651, 180
26.87955, 78, 442, 173, -46.04651, 180
26.90108, 73, 441, 173, -46.04651, 180
26.91622, 75, 442, 173, -46.04651, 180
26.93662, 74, 441, 173, -46.04651, 180
26.95727, 71, 441, 173, -46.04651, 180
26.97843, 70, 441, 173, -46.04651, 180
26.99842, 70, 441, 173, -46.04651, 180
27.0187, 63, 441, 173, -46.04651, 180
27.03533, 62, 441, 173, -46.04651, 180
27.05538, 60, 441, 173, -46.04651, 180
27.076, 60, 441, 173, -46.04651, 180
27.09619, 58, 441, 171, -47.44186, 180
27.118, 55, 441, 171, -47.44186, 180
27.1374, 54, 441, 170, -48.13953, 180
27.15828, 53, 442, 172, -46.74419, 180
27.174, 52, 443, 173, -46.04651, 180
27.19804, 52, 443, 173, -46.04651, 180
27.21529, 51, 443, 174, -45.34884, 180
27.23567, 51, 443, 172, -46.74419, 180
27.25723, 50, 443, 174, -45.34884, 180
27.27745, 51, 443, 174, -45.34884, 180
27.29377, 49, 443, 175, -44.65116, 180
27.31417, 49, 443, 175, -44.65116, 180
27.33553, 47, 443, 175, -44.65116, 180
27.35467, 48, 443, 175, -44.65116, 180
27.37465, 51, 442, 175, -44.65116, 180
27.39543, 52, 443, 175, -44.65116, 180
27.4126, 54, 443, 175, -44.65116, 180
27.43224, 53, 443, 175, -44.65116, 180
27.45338, 54, 443, 175, -44.65116, 180
27.47462, 55, 443, 175, -44.65116, 180
27.49535, 55, 443, 175, -44.65116, 180
27.51488, 59, 442, 175, -44.65116, 180
27.53611, 61, 443, 175, -44.65116, 180
27.55151, 60, 443, 175, -44.65116, 180
27.57199, 56, 443, 175, -44.65116, 180
27.59259, 56, 443, 175, -44.65116, 180
27.61266, 54, 443, 175, -44.65116, 180
27.63277, 53, 443, 175, -44.65116, 180
27.65367, 53, 442, 175, -44.65116, 180
27.66954, 51, 443, 175, -44.65116, 180
27.69028, 51, 443, 175, -44.65116, 180
27.7115, 49, 443, 175, -44.65116, 180
27.73152, 50, 443, 175, -44.65116, 180
27.75315, 51, 443, 175, -44.65116, 180
27.77211, 50, 443, 175, -44.65116, 180
27.78852, 49, 442, 175, -44.65116, 180
27.80912, 48, 443, 175, -44.65116, 180
27.82938, 49, 443, 175, -44.65116, 180
27.84946, 49, 443, 175, -44.65116, 180
27.87026, 53, 443, 175, -44.65116, 180
27.89096, 51, 443, 175, -44.65116, 180
27.91191, 52, 442, 175, -44.65116, 180
27.92947, 53, 443, 175, -44.65116, 180
27.95189, 49, 443, 175, -44.65116, 180
27.9737, 49, 443, 175, -44.65116, 180
27.99016, 50, 443, 175, -44.65116, 180
28.01087, 50, 443, 175, -44.65116, 180
28.03331, 50, 443, 175, -44.65116, 180
28.04871, 52, 443, 175, -44.65116, 180
28.06754, 52, 444, 175, -44.65116, 180
28.08799, 53, 443, 175, -44.65116, 180
28.10958, 52, 443, 175, -44.65116, 180
28.13857, 53, 442, 175, -44.65116, 180
28.1493, 52, 443, 175, -44.65116, 180
28.166, 50, 443, 175, -44.65116, 180
28.18765, 48, 442, 175, -44.65116, 180
28.20842, 50, 443, 175, -44.65116, 180
28.22845, 51, 443, 175, -44.65116, 180
28.24843, 51, 443, 175, -44.65116, 180
28.26874, 53, 443, 175, -44.65116, 180
28.28926, 53, 442, 175, -44.65116, 180
28.30575, 53, 442, 175, -44.65116, 180
28.32466, 52, 442, 175, -44.65116, 180
28.34607, 50, 443, 175, -44.65116, 180
28.36629, 48, 443, 175, -44.65116, 180
28.38734, 52, 443, 175, -44.65116, 180
28.40725, 50, 442, 175, -44.65116, 180
28.4238, 51, 443, 174, -45.34884, 180
28.44443, 51, 443, 175, -44.65116, 180
28.46507, 50, 443, 175, -44.65116, 180
28.48543, 48, 443, 175, -44.65116, 180
28.50568, 48, 443, 175, -44.65116, 180
28.52596, 48, 443, 175, -44.65116, 180
28.54229, 49, 443, 175, -44.65116, 180
28.56208, 51, 443, 175, -44.65116, 180
28.58277, 51, 443, 175, -44.65116, 180
28.60415, 54, 442, 175, -44.65116, 180
28.62407, 53, 442, 175, -44.65116, 180
28.64521, 52, 443, 175, -44.65116, 180
28.66417, 53, 443, 175, -44.65116, 180
28.68093, 50, 442, 174, -45.34884, 180
28.70195, 53, 443, 175, -44.65116, 180
28.72228, 53, 443, 175, -44.65116, 180
28.74266, 54, 443, 175, -44.65116, 180
28.76368, 54, 443, 175, -44.65116, 180
28.78447, 55, 442, 175, -44.65116, 180
28.80063, 56, 443, 175, -44.65116, 180
28.82017, 60, 443, 175, -44.65116, 180
28.84048, 63, 443, 174, -45.34884, 180
28.86347, 64, 443, 175, -44.65116, 180
28.88338, 68, 442, 175, -44.65116, 180
28.90269, 69, 442, 175, -44.65116, 180
28.91861, 72, 443, 175, -44.65116, 180
28.94128, 73, 443, 175, -44.65116, 180
28.96199, 72, 443, 175, -44.65116, 180
28.97964, 72, 443, 175, -44.65116, 180
29.00053, 72, 443, 175, -44.65116, 180
29.02181, 72, 442, 175, -44.65116, 180
29.03668, 71, 442, 175, -44.65116, 180
29.05782, 71, 442, 175, -44.65116, 180
29.07841, 70, 443, 175, -44.65116, 180
29.09867, 67, 443, 175, -44.65116, 180
29.11909, 64, 443, 175, -44.65116, 180
29.14051, 63, 442, 175, -44.65116, 180
29.16123, 61, 442, 175, -44.65116, 180
29.18006, 62, 442, 175, -44.65116, 180
29.19701, 62, 442, 175, -44.65116, 180
29.21803, 64, 443, 175, -44.65116, 180
29.23921, 65, 442, 175, -44.65116, 180
29.26051, 67, 442, 175, -44.65116, 180
29.27958, 65, 441, 175, -44.65116, 180
29.29578, 65, 441, 175, -44.65116, 180
29.31644, 64, 441, 175, -44.65116, 180
29.33666, 64, 440, 175, -44.65116, 180
29.35666, 63, 440, 175, -44.65116, 180
29.37994, 62, 440, 175, -44.65116, 180
29.39966, 61, 441, 174, -45.34884, 180
29.41635, 59, 442, 172, -46.74419, 180
29.43593, 57, 442, 172, -46.74419, 180
29.45855, 57, 442, 172, -46.74419, 180
29.47663, 55, 443, 174, -45.34884, 180
29.49697, 54, 443, 177, -43.25581, 180
29.51789, 53, 443, 177, -43.25581, 180
29.53817, 54, 443, 176, -43.95349, 180
29.55494, 53, 442, 176, -43.95349, 180
29.57648, 53, 442, 176, -43.95349, 180
29.59698, 53, 443, 176, -43.95349, 180
29.61604, 52, 441, 176, -43.95349, 180
29.6366, 55, 442, 176, -43.95349, 180
29.65656, 58, 441, 176, -43.95349, 180
29.67327, 64, 441, 176, -43.95349, 180
29.69352, 66, 442, 174, -45.34884, 180
29.71427, 63, 442, 173, -46.04651, 180
29.73586, 64, 442, 173, -46.04651, 180
29.756, 61, 442, 174, -45.34884, 180
29.77604, 64, 441, 176, -43.95349, 180
29.79287, 68, 441, 175, -44.65116, 180
29.81361, 66, 442, 173, -46.04651, 180
29.83418, 71, 442, 174, -45.34884, 180
29.85325, 72, 443, 174, -45.34884, 180
29.87414, 73, 442, 173, -46.04651, 180
29.89575, 79, 443, 173, -46.04651, 180
29.91373, 76, 443, 173, -46.04651, 180
29.93026, 72, 441, 172, -46.74419, 180
29.95235, 74, 443, 173, -46.04651, 180
29.97192, 78, 444, 174, -45.34884, 180
29.99215, 76, 442, 173, -46.04651, 180
30.0136, 76, 444, 176, -43.95349, 180
30.0324, 75, 443, 178, -42.55814, 180
30.04851, 68, 444, 173, -46.04651, 180
30.06923, 70, 444, 183, -39.06977, 180
30.09121, 69, 444, 185, -37.67442, 180
30.11122, 71, 444, 186, -36.97675, 180
30.13129, 70, 444, 187, -36.27907, 180
30.15229, 64, 445, 186, -36.97675, 180
30.16812, 70, 446, 186, -36.97675, 180
30.18826, 66, 447, 186, -36.97675, 180
30.20912, 66, 449, 186, -36.97675, 180
30.2294, 67, 450, 186, -36.97675, 180
30.24971, 68, 450, 186, -36.97675, 180
30.27013, 67, 451, 186, -36.97675, 180
30.29187, 69, 451, 186, -36.97675, 180
30.30801, 72, 449, 186, -36.97675, 180
30.32826, 75, 447, 186, -36.97675, 180
30.34802, 74, 445, 186, -36.97675, 180
30.36835, 76, 443, 186, -36.97675, 180
30.38833, 80, 441, 186, -36.97675, 180
30.40995, 84, 439, 184, -38.37209, 180
30.42615, 85, 439, 182, -39.76744, 180
30.44628, 88, 439, 178, -42.55814, 180
30.46682, 97, 438, 175, -44.65116, 180
30.4869, 112, 438, 166, -50.93023, 180
30.50926, 124, 438, 171, -47.44186, 180
30.52968, 131, 438, 171, -47.44186, 180
30.54834, 136, 438, 170, -48.13953, 180
30.56468, 142, 445, 171, -47.44186, 180
30.58517, 152, 438, 175, -44.65116, 180
30.60645, 155, 439, 175, -44.65116, 180
30.62667, 156, 439, 179, -41.86047, 180
30.64657, 155, 440, 183, -39.06977, 180
30.66752, 145, 444, 188, -35.58139, 180
30.68406, 140, 441, 193, -32.09302, 180
30.70477, 133, 440, 195, -30.69767, 180
30.72653, 126, 441, 199, -27.90698, 180
30.7454, 114, 442, 202, -25.81395, 180
30.7653, 104, 441, 202, -25.81395, 180
30.78576, 94, 443, 209, -20.93023, 180
30.80269, 97, 442, 215, -16.74419, 180
30.82427, 106, 441, 223, -11.16279, 180
30.84428, 126, 440, 227, -8.372093, 180
30.8639, 154, 440, 227, -8.372093, 180
30.88457, 187, 440, 227, -8.372093, 180
30.90468, 229, 439, 227, -8.372093, 180
30.92375, 261, 440, 227, -8.372093, 180
30.94202, 285, 439, 226, -9.069767, 0
30.96472, 269, 452, 162, -53.72093, 0
30.98342, 309, 443, 200, -27.2093, 0
31.00427, 309, 444, 192, -32.7907, 0
31.02383, 316, 437, 184, -38.37209, 0
31.04019, 318, 433, 184, -38.37209, 0
31.06125, 317, 429, 185, -37.67442, 0
31.08127, 322, 428, 183, -39.06977, 0
31.10153, 326, 423, 193, -32.09302, 0
31.12322, 328, 421, 200, -27.2093, 0
31.14428, 325, 421, 204, -24.4186, 0
31.16381, 321, 420, 204, -24.4186, 0
31.17903, 312, 420, 205, -23.72093, 0
31.19966, 302, 420, 206, -23.02326, 0
31.22137, 295, 420, 208, -21.62791, 0
31.2417, 288, 420, 208, -21.62791, 0
31.26165, 281, 420, 209, -20.93023, 0
31.28164, 276, 420, 208, -21.62791, 0
31.29805, 273, 420, 208, -21.62791, 0
31.31874, 267, 419, 207, -22.32558, 0
31.34118, 263, 420, 207, -22.32558, 0
31.36102, 257, 420, 209, -20.93023, 0
31.37978, 253, 419, 208, -21.62791, 0
31.40123, 250, 419, 209, -20.93023, 0
31.41695, 244, 419, 209, -20.93023, 0
31.43718, 234, 418, 209, -20.93023, 0
31.45768, 228, 418, 209, -20.93023, 0
31.47939, 221, 418, 209, -20.93023, 0
31.50006, 212, 417, 209, -20.93023, 0
31.52001, 204, 417, 209, -20.93023, 0
31.53695, 197, 416, 209, -20.93023, 0
31.55809, 188, 416, 209, -20.93023, 0
31.5797, 170, 416, 209, -20.93023, 0
31.59815, 153, 415, 209, -20.93023, 0
31.6173, 143, 415, 209, -20.93023, 0
31.63934, 132, 415, 209, -20.93023, 180
31.65482, 122, 418, 203, -25.11628, 180
31.67702, 112, 427, 172, -46.74419, 180
31.69548, 111, 433, 167, -50.23256, 180
31.71584, 109, 443, 169, -48.83721, 180
31.73623, 116, 439, 174, -45.34884, 180
31.75637, 151, 443, 184, -38.37209, 180
31.77905, 189, 444, 188, -35.58139, 180
31.79578, 226, 442, 204, -24.4186, 180
31.81396, 249, 442, 210, -20.23256, 180
31.83494, 264, 438, 216, -16.04651, 180
31.85615, 279, 432, 218, -14.65116, 0
31.87562, 290, 441, 241, 1.395349, 0
31.89605, 272, 445, 207, -22.32558, 0
31.91304, 257, 444, 193, -32.09302, 0
31.93293, 248, 442, 178, -42.55814, 0
31.95536, 287, 438, 183, -39.06977, 0
31.97581, 334, 435, 183, -39.06977, 0
31.99716, 376, 431, 184, -38.37209, 0
32.01838, 413, 426, 191, -33.48837, 0
32.03506, 442, 424, 195, -30.69767, 0
32.05412, 468, 421, 206, -23.02326, 0
32.07494, 485, 420, 215, -16.74419, 0
32.09595, 489, 419, 215, -16.74419, 0
32.11481, 488, 420, 215, -16.74419, 0
32.13589, 492, 420, 215, -16.74419, 0
32.15269, 493, 419, 214, -17.44186, 0
32.17256, 484, 419, 214, -17.44186, 0
32.19373, 474, 419, 214, -17.44186, 0
32.2121, 469, 419, 214, -17.44186, 0
32.23316, 461, 419, 214, -17.44186, 0
32.25181, 449, 419, 214, -17.44186, 0
32.27227, 436, 418, 214, -17.44186, 0
32.28921, 418, 419, 214, -17.44186, 0
32.31012, 400, 419, 214, -17.44186, 0
32.32977, 383, 420, 214, -17.44186, 0
32.35036, 361, 419, 214, -17.44186, 0
32.37148, 343, 419, 214, -17.44186, 0
32.39172, 327, 419, 214, -17.44186, 0
32.40915, 313, 419, 214, -17.44186, 0
32.4286, 300, 419, 214, -17.44186, 0
32.44938, 288, 419, 214, -17.44186, 0
32.46893, 277, 419, 214, -17.44186, 0
32.48938, 267, 418, 214, -17.44186, 0
32.51077, 257, 419, 214, -17.44186, 0
32.53028, 249, 418, 214, -17.44186, 0
32.54684, 236, 419, 214, -17.44186, 0
32.56746, 224, 419, 214, -17.44186, 0
32.58895, 214, 418, 214, -17.44186, 0
32.60817, 202, 419, 214, -17.44186, 0
32.62874, 188, 419, 214, -17.44186, 0
32.65059, 174, 418, 214, -17.44186, 0
32.66609, 161, 419, 214, -17.44186, 0
32.68606, 152, 419, 214, -17.44186, 0
32.70631, 144, 419, 214, -17.44186, 0
32.72783, 137, 419, 214, -17.44186, 180
32.74762, 127, 425, 192, -32.7907, 180
32.76799, 116, 432, 178, -42.55814, 180
32.78434, 108, 440, 176, -43.95349, 180
32.80521, 104, 440, 177, -43.25581, 180
32.82604, 96, 443, 185, -37.67442, 180
32.8459, 92, 444, 197, -29.30233, 180
32.87038, 94, 443, 205, -23.72093, 180
32.88875, 94, 444, 211, -19.53488, 180
32.9044, 93, 445, 215, -16.74419, 180
32.92356, 90, 444, 219, -13.95349, 180
32.94495, 87, 445, 228, -7.674418, 180
32.96462, 85, 444, 232, -4.883721, 180
32.98521, 81, 443, 234, -3.488372, 180
33.00525, 76, 445, 227, -8.372093, 180
33.02251, 72, 443, 236, -2.093023, 180
33.04354, 66, 443, 236, -2.093023, 180
33.06363, 62, 444, 235, -2.790698, 180
33.08433, 57, 444, 235, -2.790698, 180
33.10378, 53, 444, 235, -2.790698, 180
33.12458, 49, 452, 239, 0, 180
33.14514, 48, 444, 237, -1.395349, 180
33.16177, 69, 443, 237, -1.395349, 180
33.18189, 112, 444, 237, -1.395349, 180
33.20224, 153, 444, 237, -1.395349, 180
33.22292, 184, 443, 237, -1.395349, 180
33.24411, 208, 444, 238, -0.6976744, 180
33.26385, 226, 443, 238, -0.6976744, 180
33.28102, 234, 443, 239, 0, 180
33.30029, 233, 443, 239, 0, 180
33.32085, 228, 444, 239, 0, 180
33.34167, 221, 441, 239, 0, 180
33.36179, 214, 437, 250, 7.674418, 180
33.38248, 196, 444, 238, -0.6976744, 180
33.39984, 178, 443, 239, 0, 180
33.41909, 160, 443, 238, -0.6976744, 180
33.43955, 144, 443, 239, 0, 180
33.4614, 139, 442, 238, -0.6976744, 180
33.48059, 139, 443, 239, 0, 180
33.50214, 138, 443, 239, 0, 180
33.51771, 129, 443, 239, 0, 180
33.53836, 116, 443, 239, 0, 180
33.55863, 101, 443, 239, 0, 180
33.57888, 90, 442, 239, 0, 180
33.59951, 91, 442, 240, 0.6976744, 180
33.61991, 100, 442, 239, 0, 180
33.63643, 114, 442, 239, 0, 180
33.65657, 129, 443, 239, 0, 180
33.67802, 138, 442, 240, 0.6976744, 180
33.69989, 148, 441, 240, 0.6976744, 180
33.71932, 172, 441, 240, 0.6976744, 180
33.73888, 206, 441, 241, 1.395349, 180
33.75554, 237, 441, 241, 1.395349, 180
33.77633, 261, 441, 241, 1.395349, 180
33.7961, 277, 442, 238, -0.6976744, 0
33.81712, 288, 443, 234, -3.488372, 0
33.83683, 291, 444, 209, -20.93023, 0
33.85758, 298, 442, 196, -30, 0
33.87812, 306, 439, 190, -34.18605, 0
33.89478, 313, 436, 188, -35.58139, 0
33.9149, 315, 433, 190, -34.18605, 0
33.93658, 324, 429, 196, -30, 0
33.95533, 323, 426, 201, -26.51163, 0
33.977, 320, 422, 206, -23.02326, 0
33.99676, 308, 422, 213, -18.13953, 0
34.01377, 287, 421, 215, -16.74419, 0
34.03371, 261, 419, 218, -14.65116, 0
34.05396, 233, 420, 219, -13.95349, 0
34.07476, 205, 419, 219, -13.95349, 0
34.09513, 181, 420, 220, -13.25581, 0
34.11536, 160, 419, 220, -13.25581, 0
34.13301, 143, 420, 220, -13.25581, 0
34.15259, 132, 419, 220, -13.25581, 180
34.17308, 121, 420, 219, -13.95349, 180
34.19642, 107, 427, 194, -31.39535, 180
34.21469, 89, 433, 183, -39.06977, 180
34.23448, 93, 439, 182, -39.76744, 180
34.2518, 114, 442, 188, -35.58139, 180
34.27157, 132, 444, 193, -32.09302, 180
34.29198, 148, 444, 204, -24.4186, 180
34.31218, 155, 445, 210, -20.23256, 180
34.33294, 159, 446, 217, -15.34884, 180
34.35526, 154, 446, 223, -11.16279, 180
34.37563, 145, 446, 229, -6.976744, 180
34.39355, 139, 442, 237, -1.395349, 180
34.41367, 128, 443, 239, 0, 180
34.43308, 115, 444, 239, 0, 180
34.45325, 101, 444, 239, 0, 180
34.47417, 91, 443, 240, 0.6976744, 180
34.49523, 81, 443, 240, 0.6976744, 180
34.51128, 72, 442, 240, 0.6976744, 180
34.53106, 66, 443, 240, 0.6976744, 180
34.55181, 60, 443, 240, 0.6976744, 180
34.57346, 54, 435, 243, 2.790698, 180
34.59322, 51, 446, 241, 1.395349, 180
34.61402, 48, 443, 240, 0.6976744, 180
34.62947, 46, 442, 240, 0.6976744, 180
34.64961, 45, 442, 240, 0.6976744, 180
34.67014, 45, 443, 240, 0.6976744, 180
34.69064, 74, 442, 240, 0.6976744, 180
34.71201, 145, 442, 240, 0.6976744, 180
34.73186, 201, 442, 240, 0.6976744, 180
34.75217, 241, 442, 240, 0.6976744, 180
34.77053, 270, 442, 240, 0.6976744, 180
34.78886, 287, 442, 240, 0.6976744, 0
34.80974, 283, 446, 216, -16.04651, 0
34.83069, 281, 443, 200, -27.2093, 0
34.84898, 278, 441, 192, -32.7907, 0
34.87078, 269, 440, 191, -33.48837, 0
34.88767, 267, 438, 189, -34.88372, 0
34.90781, 265, 430, 194, -31.39535, 0
34.92898, 258, 426, 196, -30, 0
34.94915, 251, 424, 206, -23.02326, 0
34.96997, 240, 422, 212, -18.83721, 0
34.99156, 224, 421, 216, -16.04651, 0
35.00793, 205, 421, 218, -14.65116, 0
35.02531, 188, 421, 216, -16.04651, 0
35.04572, 175, 421, 216, -16.04651, 0
35.06757, 163, 422, 216, -16.04651, 0
35.0865, 147, 422, 213, -18.13953, 0
35.10699, 128, 424, 210, -20.23256, 180
35.12479, 136, 428, 207, -22.32558, 180
35.14754, 157, 435, 191, -33.48837, 180
35.16761, 192, 439, 187, -36.27907, 180
35.18671, 170, 444, 188, -35.58139, 180
35.21272, 145, 446, 200, -27.2093, 180
35.22862, 121, 448, 209, -20.93023, 180
35.24757, 127, 450, 225, -9.767442, 180
35.2634, 172, 454, 226, -9.069767, 180
35.28525, 298, 457, 227, -8.372093, 180
35.30656, 422, 460, 228, -7.674418, 0
35.32418, 454, 480, 159, -55.81395, 0
35.34519, 509, 471, 173, -46.04651, 0
35.36158, 531, 468, 156, -57.90698, 0
35.38253, 550, 461, 150, -62.09302, 0
35.40164, 554, 455, 145, -65.5814, 0
35.42368, 542, 450, 141, -68.37209, 0
35.44437, 524, 446, 139, -69.76744, 0
35.46416, 522, 442, 140, -69.06977, 0
35.4846, 509, 451, 146, -64.88372, 0
35.49986, 435, 440, 144, -66.27907, 0
35.52026, 341, 438, 143, -66.97675, 0
35.54099, 267, 443, 143, -66.97675, 0
35.56161, 212, 440, 136, -71.86047, 0
35.58184, 186, 439, 137, -71.16279, 0
35.60253, 165, 440, 130, -76.04651, 0
35.61992, 160, 439, 128, -77.44186, 0
35.63887, 141, 438, 126, -78.83721, 0
35.66031, 122, 439, 123, -80.93023, 180
35.68009, 113, 431, 157, -57.2093, 180
35.70045, 92, 441, 139, -69.76744, 180
35.72147, 82, 448, 132, -74.65116, 180
35.73796, 83, 454, 139, -69.76744, 180
35.75862, 95, 455, 150, -62.09302, 180
35.77901, 118, 459, 150, -62.09302, 180
35.7993, 135, 461, 149, -62.7907, 180
35.81966, 173, 462, 149, -62.7907, 180
35.84173, 236, 463, 149, -62.7907, 180
35.85929, 351, 463, 149, -62.7907, 180
35.87812, 475, 463, 149, -62.7907, 0
35.89747, 560, 469, 136, -71.86047, 0
35.91814, 592, 467, 112, -88.60465, 0
35.93825, 616, 457, 95, -100.4651, 0
35.95953, 634, 448, 91, -103.2558, 0
35.97655, 637, 440, 93, -101.8605, 0
35.99618, 651, 438, 98, -98.37209, 0
36.0164, 648, 429, 105, -93.48837, 0
36.03679, 642, 426, 109, -90.69768, 0
36.0587, 628, 425, 113, -87.90697, 0
36.07882, 603, 425, 116, -85.81396, 0
36.09824, 582, 424, 117, -85.11628, 0
36.11478, 562, 425, 117, -85.11628, 0
36.1351, 540, 426, 116, -85.81396, 0
36.15574, 510, 428, 115, -86.51163, 0
36.17663, 485, 427, 113, -87.90697, 0
36.19662, 450, 425, 114, -87.2093, 0
36.21738, 424, 425, 114, -87.2093, 0
36.2345, 394, 426, 114, -87.2093, 0
36.25564, 368, 425, 115, -86.51163, 0
36.27652, 347, 425, 116, -85.81396, 0
36.29574, 323, 426, 116, -85.81396, 0
36.31472, 308, 426, 114, -87.2093, 0
36.33633, 295, 426, 114, -87.2093, 0
36.35205, 287, 426, 112, -88.60465, 0
36.3732, 273, 425, 111, -89.30232, 0
36.39469, 264, 426, 110, -90, 0
36.41386, 249, 424, 111, -89.30232, 0
36.43498, 232, 424, 110, -90, 0
36.45472, 208, 423, 111, -89.30232, 0
36.47111, 184, 423, 112, -88.60465, 0
36.49366, 163, 424, 112, -88.60465, 0
36.51228, 144, 424, 112, -88.60465, 0
36.53243, 125, 424, 112, -88.60465, 180
36.55391, 107, 438, 95, -100.4651, 180
36.57347, 103, 439, 85, -107.4419, 180
36.59084, 133, 445, 87, -106.0465, 180
36.61107, 181, 450, 96, -99.76744, 180
36.63042, 234, 451, 105, -93.48837, 180
36.65214, 286, 451, 114, -87.2093, 180
36.67191, 327, 450, 120, -83.02325, 0
36.69413, 340, 451, 105, -93.48837, 0
36.71231, 345, 446, 92, -102.5581, 0
36.72867, 345, 440, 87, -106.0465, 0
36.74949, 352, 432, 90, -103.9535, 0
36.76945, 355, 427, 96, -99.76744, 0
36.79057, 352, 423, 104, -94.18604, 0
36.81203, 358, 419, 110, -90, 0
36.83141, 354, 421, 113, -87.90697, 0
36.84788, 346, 422, 113, -87.90697, 0
36.86819, 337, 423, 113, -87.90697, 0
36.88884, 327, 424, 112, -88.60465, 0
36.91077, 317, 424, 110, -90, 0
36.92971, 307, 424, 108, -91.39535, 0
36.95282, 301, 424, 108, -91.39535, 0
36.96676, 288, 424, 107, -92.09303, 0
36.98725, 276, 424, 107, -92.09303, 0
37.00765, 267, 424, 108, -91.39535, 0
37.02887, 254, 423, 108, -91.39535, 0
37.04865, 243, 421, 108, -91.39535, 0
37.06876, 233, 423, 108, -91.39535, 0
37.08547, 221, 424, 108, -91.39535, 0
37.10578, 209, 425, 108, -91.39535, 0
37.1283, 195, 424, 107, -92.09303, 0
37.14683, 181, 425, 106, -92.7907, 0
37.16731, 175, 424, 106, -92.7907, 0
37.18763, 162, 424, 105, -93.48837, 0
37.20595, 151, 423, 105, -93.48837, 0
37.22498, 141, 422, 105, -93.48837, 0
37.24566, 132, 422, 106, -92.7907, 180
37.26618, 119, 424, 95, -100.4651, 180
37.28611, 105, 434, 81, -110.2326, 180
37.3066, 98, 442, 78, -112.3256, 180
37.32539, 92, 446, 82, -109.5349, 180
37.34447, 128, 451, 95, -100.4651, 180
37.36509, 210, 452, 105, -93.48837, 180
37.38427, 303, 450, 115, -86.51163, 180
37.40461, 391, 449, 120, -83.02325, 0
37.42558, 439, 452, 108, -91.39535, 0
37.44575, 466, 452, 93, -101.8605, 0
37.46233, 493, 443, 84, -108.1395, 0
37.48302, 515, 440, 84, -108.1395, 0
37.50362, 544, 428, 87, -106.0465, 0
37.52403, 559, 424, 94, -101.1628, 0
37.54615, 578, 420, 101, -96.27907, 0
37.56484, 586, 419, 105, -93.48837, 0
37.58103, 587, 420, 107, -92.09303, 0
37.60128, 582, 420, 108, -91.39535, 0
37.62209, 575, 421, 107, -92.09303, 0
37.64299, 563, 422, 106, -92.7907, 0
37.66311, 555, 422, 106, -92.7907, 0
37.68454, 540, 422, 106, -92.7907, 0
37.70047, 526, 422, 106, -92.7907, 0
37.72063, 508, 422, 106, -92.7907, 0
37.74132, 496, 422, 107, -92.09303, 0
37.76285, 485, 423, 107, -92.09303, 0
37.78118, 470, 422, 107, -92.09303, 0
37.80171, 453, 423, 105, -93.48837, 0
37.81898, 439, 423, 103, -94.88372, 0
37.83856, 428, 423, 104, -94.18604, 0
37.85971, 417, 423, 105, -93.48837, 0
37.87943, 412, 423, 106, -92.7907, 0
37.89988, 411, 423, 106, -92.7907, 0
37.92023, 402, 424, 104, -94.18604, 0
37.94089, 394, 425, 103, -94.88372, 0
37.95833, 385, 425, 102, -95.5814, 0
37.98015, 382, 424, 103, -94.88372, 0
37.99816, 384, 424, 104, -94.18604, 0
38.01859, 377, 425, 104, -94.18604, 0
38.03896, 374, 425, 104, -94.18604, 0
38.06057, 371, 425, 103, -94.88372, 0
38.07716, 369, 424, 102, -95.5814, 0
38.09653, 368, 423, 103, -94.88372, 0
38.11691, 362, 424, 103, -94.88372, 0
38.13739, 355, 423, 104, -94.18604, 0
38.15821, 346, 423, 104, -94.18604, 0
38.17862, 337, 422, 104, -94.18604, 0
38.19643, 328, 423, 104, -94.18604, 0
38.21527, 322, 423, 104, -94.18604, 0
38.23561, 316, 423, 104, -94.18604, 0
38.25616, 315, 423, 104, -94.18604, 0
38.28078, 312, 423, 104, -94.18604, 0
38.29802, 306, 423, 104, -94.18604, 0
38.31759, 302, 423, 104, -94.18604, 0
38.33469, 293, 423, 104, -94.18604, 0
38.35473, 285, 423, 104, -94.18604, 0
38.37538, 275, 423, 104, -94.18604, 0
38.39563, 265, 423, 104, -94.18604, 0
38.4168, 262, 423, 104, -94.18604, 0
38.4362, 254, 423, 104, -94.18604, 0
38.45307, 250, 423, 104, -94.18604, 0
38.47371, 245, 423, 104, -94.18604, 0
38.49485, 238, 423, 104, -94.18604, 0
38.51449, 227, 423, 104, -94.18604, 0
38.53475, 226, 423, 104, -94.18604, 0
38.55481, 221, 423, 104, -94.18604, 0
38.5717, 185, 421, 104, -94.18604, 0
38.59291, 158, 422, 104, -94.18604, 0
38.61295, 132, 422, 104, -94.18604, 0
38.63391, 131, 423, 104, -94.18604, 180
38.65371, 151, 429, 85, -107.4419, 180
38.67412, 160, 439, 77, -113.0233, 180
38.6914, 167, 445, 78, -112.3256, 180
38.71145, 179, 449, 85, -107.4419, 180
38.73132, 177, 454, 88, -105.3488, 180
38.75205, 175, 453, 104, -94.18604, 180
38.7729, 175, 450, 113, -87.90697, 180
38.79387, 165, 449, 116, -85.81396, 180
38.81025, 152, 448, 116, -85.81396, 180
38.82958, 140, 448, 116, -85.81396, 180
38.85094, 127, 447, 116, -85.81396, 180
38.87061, 111, 446, 115, -86.51163, 180
38.89126, 101, 446, 115, -86.51163, 180
38.91194, 92, 444, 116, -85.81396, 180
38.92834, 95, 444, 114, -87.2093, 180
38.9511, 93, 444, 112, -88.60465, 180
38.97133, 110, 445, 114, -87.2093, 180
38.99302, 99, 446, 114, -87.2093, 180
39.01344, 94, 446, 114, -87.2093, 180
39.03299, 92, 446, 116, -85.81396, 180
39.05114, 97, 446, 118, -84.4186, 180
39.07064, 101, 446, 118, -84.4186, 180
39.09028, 107, 445, 118, -84.4186, 180
39.11109, 102, 445, 118, -84.4186, 180
39.13184, 99, 445, 117, -85.11628, 180
39.15153, 99, 446, 117, -85.11628, 180
39.1684, 92, 446, 117, -85.11628, 180
39.18843, 88, 447, 117, -85.11628, 180
39.2095, 84, 445, 117, -85.11628, 180
39.23171, 83, 445, 119, -83.72093, 180
39.25034, 75, 445, 119, -83.72093, 180
39.27176, 68, 445, 119, -83.72093, 180
39.29131, 62, 445, 119, -83.72093, 180
39.30659, 59, 445, 119, -83.72093, 180
39.32601, 54, 444, 119, -83.72093, 180
39.3455, 48, 444, 119, -83.72093, 180
39.36619, 43, 445, 117, -85.11628, 180
39.38687, 40, 445, 118, -84.4186, 180
39.40715, 43, 445, 117, -85.11628, 180
39.42515, 44, 445, 118, -84.4186, 180
39.44709, 48, 444, 116, -85.81396, 180
39.46689, 52, 446, 116, -85.81396, 180
39.48869, 51, 446, 117, -85.11628, 180
39.50869, 56, 447, 117, -85.11628, 180
39.52877, 53, 447, 118, -84.4186, 180
39.54579, 50, 447, 118, -84.4186, 180
39.56481, 48, 448, 118, -84.4186, 180
39.58569, 44, 447, 119, -83.72093, 180
39.6042, 44, 447, 120, -83.02325, 180
39.62429, 42, 448, 119, -83.72093, 180
39.64538, 46, 448, 120, -83.02325, 180
39.66497, 47, 447, 123, -80.93023, 180
39.68159, 52, 447, 122, -81.62791, 180
39.70297, 51, 446, 123, -80.93023, 180
39.7229, 53, 446, 123, -80.93023, 180
39.74404, 52, 446, 123, -80.93023, 180
39.76387, 52, 447, 121, -82.32558, 180
39.7838, 49, 447, 121, -82.32558, 180
39.80071, 44, 451, 120, -83.02325, 180
39.8208, 42, 447, 123, -80.93023, 180
39.84153, 44, 447, 123, -80.93023, 180
39.86178, 49, 447, 123, -80.93023, 180
39.88228, 56, 447, 123, -80.93023, 180
39.90502, 63, 447, 123, -80.93023, 180
39.92195, 70, 446, 123, -80.93023, 180
39.94119, 78, 447, 123, -80.93023, 180
39.96223, 87, 447, 123, -80.93023, 180
39.98197, 95, 446, 123, -80.93023, 180
40.00267, 106, 446, 123, -80.93023, 180
40.02259, 113, 446, 121, -82.32558, 180
40.03959, 125, 447, 120, -83.02325, 180
40.05994, 133, 446, 122, -81.62791, 180
40.08075, 142, 446, 122, -81.62791, 180
40.10091, 150, 447, 124, -80.23256, 180
40.12401, 158, 446, 124, -80.23256, 180
40.14044, 164, 446, 124, -80.23256, 180
40.16152, 157, 445, 124, -80.23256, 180
40.17851, 140, 445, 124, -80.23256, 180
40.19807, 131, 446, 124, -80.23256, 180
40.21815, 120, 445, 124, -80.23256, 180
40.23846, 107, 445, 124, -80.23256, 180
40.26006, 91, 445, 124, -80.23256, 180
40.28055, 78, 444, 124, -80.23256, 180
40.29673, 69, 444, 124, -80.23256, 180
40.31619, 61, 445, 124, -80.23256, 180
40.33813, 54, 445, 124, -80.23256, 180
40.35797, 48, 444, 124, -80.23256, 180
40.37846, 46, 444, 124, -80.23256, 180
40.39989, 42, 445, 121, -82.32558, 180
40.41637, 42, 446, 119, -83.72093, 180
40.43751, 41, 447, 120, -83.02325, 180
40.4577, 38, 448, 121, -82.32558, 180
40.47792, 35, 448, 122, -81.62791, 180
40.49992, 34, 448, 123, -80.93023, 180
40.52235, 34, 448, 124, -80.23256, 180
40.53462, 36, 448, 125, -79.53488, 180
40.55497, 36, 448, 124, -80.23256, 180
40.57466, 37, 448, 125, -79.53488, 180
40.59516, 39, 448, 125, -79.53488, 180
40.61545, 40, 448, 126, -78.83721, 180
40.6357, 39, 447, 126, -78.83721, 180
40.65604, 39, 447, 126, -78.83721, 180
40.67341, 37, 447, 126, -78.83721, 180
40.69451, 36, 446, 126, -78.83721, 180
40.71356, 38, 447, 126, -78.83721, 180
40.73421, 41, 446, 126, -78.83721, 180
40.75528, 40, 446, 126, -78.83721, 180
40.77509, 40, 446, 126, -78.83721, 180
40.79304, 42, 446, 126, -78.83721, 180
40.81187, 40, 447, 125, -79.53488, 180
40.83301, 45, 447, 126, -78.83721, 180
40.85302, 45, 447, 126, -78.83721, 180
40.87368, 45, 447, 126, -78.83721, 180
40.8947, 41, 446, 126, -78.83721, 180
40.9111, 40, 446, 126, -78.83721, 180
40.93092, 42, 446, 126, -78.83721, 180
40.95122, 45, 446, 126, -78.83721, 180
40.97243, 44, 447, 126, -78.83721, 180
40.99319, 45, 447, 126, -78.83721, 180
41.01469, 47, 448, 126, -78.83721, 180
41.03145, 48, 449, 126, -78.83721, 180
41.05095, 46, 448, 126, -78.83721, 180
41.07225, 49, 448, 126, -78.83721, 180
41.0932, 50, 447, 126, -78.83721, 180
41.11308, 52, 447, 126, -78.83721, 180
41.13305, 53, 447, 126, -78.83721, 180
41.15408, 52, 448, 126, -78.83721, 180
41.1715, 57, 448, 126, -78.83721, 180
41.19174, 62, 448, 126, -78.83721, 180
41.21156, 63, 450, 126, -78.83721, 180
41.23163, 64, 449, 126, -78.83721, 180
41.25349, 60, 449, 126, -78.83721, 180
41.2723, 59, 449, 126, -78.83721, 180
41.2899, 58, 450, 126, -78.83721, 180
41.31029, 54, 450, 126, -78.83721, 180
41.33153, 51, 450, 126, -78.83721, 180
41.35067, 49, 450, 126, -78.83721, 180
41.37085, 46, 450, 126, -78.83721, 180
41.39266, 46, 449, 126, -78.83721, 180
41.40714, 48, 450, 126, -78.83721, 180
41.42799, 45, 450, 126, -78.83721, 180
41.44719, 43, 450, 126, -78.83721, 180
41.46742, 41, 450, 126, -78.83721, 180
41.48772, 40, 450, 126, -78.83721, 180
41.50835, 38, 450, 126, -78.83721, 180
41.52871, 38, 450, 126, -78.83721, 180
41.54681, 37, 450, 126, -78.83721, 180
41.5669, 37, 450, 126, -78.83721, 180
41.58762, 35, 450, 126, -78.83721, 180
41.60925, 35, 450, 126, -78.83721, 180
41.62935, 33, 449, 126, -78.83721, 180
41.64902, 35, 450, 126, -78.83721, 180
41.66629, 36, 450, 126, -78.83721, 180
41.68444, 38, 450, 126, -78.83721, 180
41.70483, 39, 450, 126, -78.83721, 180
41.72563, 40, 450, 126, -78.83721, 180
41.74701, 42, 451, 126, -78.83721, 180
41.76617, 41, 450, 126, -78.83721, 180
41.78333, 43, 451, 126, -78.83721, 180
41.80403, 43, 451, 126, -78.83721, 180
41.82632, 43, 451, 126, -78.83721, 180
41.84659, 41, 450, 126, -78.83721, 180
41.86461, 40, 451, 126, -78.83721, 180
41.88488, 38, 450, 126, -78.83721, 180
41.90294, 39, 451, 126, -78.83721, 180
41.92368, 39, 450, 126, -78.83721, 180
41.94537, 38, 451, 126, -78.83721, 180
41.96405, 42, 452, 126, -78.83721, 180
41.98437, 42, 452, 126, -78.83721, 180
42.00373, 41, 452, 126, -78.83721, 180
42.0246, 41, 452, 126, -78.83721, 180
42.04634, 42, 452, 126, -78.83721, 180
42.06231, 41, 453, 126, -78.83721, 180
42.0828, 39, 453, 126, -78.83721, 180
42.10405, 38, 452, 126, -78.83721, 180
42.12272, 36, 453, 126, -78.83721, 180
42.14478, 35, 454, 126, -78.83721, 180
42.16045, 35, 454, 125, -79.53488, 180
42.17993, 33, 454, 125, -79.53488, 180
42.20047, 33, 454, 125, -79.53488, 180
42.22079, 34, 454, 125, -79.53488, 180
42.24274, 33, 454, 125, -79.53488, 180
42.26538, 33, 454, 125, -79.53488, 180
42.27976, 32, 454, 125, -79.53488, 180
42.30004, 34, 453, 125, -79.53488, 180
42.31928, 34, 453, 125, -79.53488, 180
42.33957, 33, 453, 126, -78.83721, 180
42.36131, 35, 452, 125, -79.53488, 180
42.38063, 33, 452, 125, -79.53488, 180
42.40114, 33, 452, 125, -79.53488, 180
42.41732, 32, 452, 125, -79.53488, 180
42.43792, 32, 452, 125, -79.53488, 180
42.45844, 33, 453, 126, -78.83721, 180
42.48033, 33, 452, 126, -78.83721, 180
42.49963, 34, 452, 125, -79.53488, 180
42.51983, 34, 452, 125, -79.53488, 180
42.53626, 32, 452, 125, -79.53488, 180
42.55648, 32, 451, 125, -79.53488, 180
42.5779, 34, 451, 125, -79.53488, 180
42.59762, 33, 451, 125, -79.53488, 180
42.61806, 34, 450, 125, -79.53488, 180
42.63832, 34, 450, 125, -79.53488, 180
42.65549, 33, 450, 125, -79.53488, 180
42.67619, 32, 450, 125, -79.53488, 180
42.6968, 30, 450, 125, -79.53488, 180
42.71634, 31, 449, 125, -79.53488, 180
42.73695, 31, 449, 126, -78.83721, 180
42.7574, 33, 449, 125, -79.53488, 180
42.77513, 33, 449, 125, -79.53488, 180
42.79484, 33, 449, 125, -79.53488, 180
42.81482, 35, 449, 125, -79.53488, 180
42.83517, 43, 450, 125, -79.53488, 180
42.85527, 41, 449, 125, -79.53488, 180
42.87685, 40, 449, 126, -78.83721, 180
42.89772, 45, 449, 126, -78.83721, 180
42.91356, 44, 449, 125, -79.53488, 180
42.93361, 47, 448, 126, -78.83721, 180
42.95406, 47, 449, 126, -78.83721, 180
42.97718, 48, 448, 126, -78.83721, 180
42.99762, 51, 448, 126, -78.83721, 180
43.01748, 49, 447, 126, -78.83721, 180
43.03474, 48, 447, 126, -78.83721, 180
43.05506, 50, 447, 126, -78.83721, 180
43.07501, 49, 447, 126, -78.83721, 180
43.09674, 49, 446, 126, -78.83721, 180
43.11754, 52, 446, 126, -78.83721, 180
43.14708, 54, 446, 126, -78.83721, 180
43.15659, 59, 446, 126, -78.83721, 180
43.17591, 58, 445, 126, -78.83721, 180
43.19268, 53, 445, 126, -78.83721, 180
43.21489, 49, 445, 124, -80.23256, 180
43.23316, 49, 443, 124, -80.23256, 180
43.25354, 50, 446, 123, -80.93023, 180
43.2745, 49, 446, 125, -79.53488, 180
43.29189, 47, 445, 128, -77.44186, 180
43.31216, 44, 445, 128, -77.44186, 180
43.33209, 39, 445, 128, -77.44186, 180
43.35139, 36, 445, 128, -77.44186, 180
43.37173, 64, 446, 128, -77.44186, 180
43.39316, 66, 446, 127, -78.13953, 180
43.40942, 70, 447, 128, -77.44186, 180
43.4294, 69, 447, 128, -77.44186, 180
43.4497, 70, 446, 128, -77.44186, 180
43.47014, 95, 445, 129, -76.74419, 180
43.49062, 91, 444, 128, -77.44186, 180
43.51165, 79, 444, 128, -77.44186, 180
43.52904, 93, 444, 128, -77.44186, 180
43.54984, 127, 443, 128, -77.44186, 180
43.56966, 130, 443, 128, -77.44186, 180
43.58937, 131, 444, 125, -79.53488, 180
43.61041, 113, 444, 122, -81.62791, 180
43.62978, 107, 445, 119, -83.72093, 180
43.64624, 126, 445, 119, -83.72093, 180
43.66661, 117, 446, 122, -81.62791, 180
43.68748, 109, 443, 122, -81.62791, 180
43.70765, 100, 444, 124, -80.23256, 180
43.72856, 97, 443, 124, -80.23256, 180
43.74865, 90, 445, 123, -80.93023, 180
43.77009, 91, 445, 123, -80.93023, 180
43.78536, 83, 448, 116, -85.81396, 180
43.80584, 81, 447, 126, -78.83721, 180
43.82712, 80, 447, 120, -83.02325, 180
43.84981, 73, 445, 129, -76.74419, 180
43.86994, 75, 445, 129, -76.74419, 180
43.89063, 73, 447, 123, -80.93023, 180
43.90776, 84, 443, 131, -75.34884, 180
43.92814, 83, 441, 130, -76.04651, 180
43.94816, 86, 443, 131, -75.34884, 180
43.96841, 92, 443, 126, -78.83721, 180
43.99099, 103, 442, 132, -74.65116, 180
44.00976, 111, 447, 136, -71.86047, 180
44.02729, 118, 442, 138, -70.46512, 180
44.04709, 130, 441, 140, -69.06977, 180
44.06702, 143, 442, 143, -66.97675, 180
44.08683, 155, 442, 144, -66.27907, 180
44.10765, 172, 442, 146, -64.88372, 180
44.12887, 188, 442, 147, -64.18604, 180
44.14534, 206, 442, 150, -62.09302, 180
44.16637, 221, 441, 153, -60, 180
44.18502, 235, 441, 154, -59.30233, 180
44.20786, 245, 443, 152, -60.69767, 180
44.22718, 254, 441, 160, -55.11628, 180
44.24734, 258, 440, 165, -51.62791, 0
44.26383, 268, 455, 167, -50.23256, 0
44.28163, 282, 433, 185, -37.67442, 0
44.30256, 279, 432, 174, -45.34884, 0
44.32409, 287, 427, 172, -46.74419, 0
44.3443, 288, 423, 173, -46.04651, 0
44.36413, 293, 419, 180, -41.16279, 0
44.38418, 298, 416, 189, -34.88372, 0
44.40032, 297, 415, 191, -33.48837, 0
44.42271, 295, 414, 191, -33.48837, 0
44.44201, 294, 414, 191, -33.48837, 0
44.46237, 285, 414, 191, -33.48837, 0
44.48245, 272, 413, 191, -33.48837, 0
44.50315, 254, 413, 191, -33.48837, 0
44.5189, 233, 413, 191, -33.48837, 0
44.53942, 214, 413, 191, -33.48837, 0
44.56084, 199, 413, 191, -33.48837, 0
44.58056, 182, 412, 191, -33.48837, 0
44.60115, 157, 412, 191, -33.48837, 0
44.62606, 129, 413, 191, -33.48837, 0
44.64476, 107, 412, 191, -33.48837, 180
44.66179, 85, 420, 165, -51.62791, 180
44.68228, 73, 431, 139, -69.76744, 180
44.70269, 83, 438, 143, -66.97675, 180
44.72255, 110, 438, 149, -62.7907, 180
44.7449, 125, 441, 158, -56.51163, 180
44.76162, 140, 442, 165, -51.62791, 180
44.77833, 143, 442, 172, -46.74419, 180
44.79818, 143, 442, 182, -39.76744, 180
44.81807, 142, 443, 191, -33.48837, 180
44.83993, 138, 442, 197, -29.30233, 180
44.85994, 131, 447, 204, -24.4186, 180
44.87957, 124, 443, 211, -19.53488, 180
44.8958, 119, 450, 222, -11.86047, 180
44.91616, 119, 440, 226, -9.069767, 180
44.93697, 116, 439, 228, -7.674418, 180
44.95735, 116, 438, 229, -6.976744, 180
44.97869, 115, 439, 228, -7.674418, 180
44.9985, 113, 439, 228, -7.674418, 180
45.01479, 115, 439, 228, -7.674418, 180
45.03523, 116, 439, 228, -7.674418, 180
45.05655, 114, 440, 227, -8.372093, 180
45.07674, 115, 440, 227, -8.372093, 180
45.09922, 115, 440, 230, -6.27907, 180
45.12001, 119, 439, 230, -6.27907, 180
45.14035, 120, 444, 222, -11.86047, 180
45.15736, 127, 439, 227, -8.372093, 180
45.17804, 136, 440, 228, -7.674418, 180
45.19857, 142, 441, 231, -5.581395, 180
45.2182, 147, 441, 233, -4.186047, 180
45.23841, 156, 441, 233, -4.186047, 180
45.26152, 169, 441, 234, -3.488372, 180
45.27621, 189, 441, 234, -3.488372, 180
45.29518, 216, 441, 235, -2.790698, 180
45.31442, 268, 441, 235, -2.790698, 180
45.33399, 358, 441, 236, -2.093023, 0
45.35401, 386, 455, 167, -50.23256, 0
45.3754, 479, 442, 211, -19.53488, 0
45.39214, 497, 442, 194, -31.39535, 0
45.41209, 504, 441, 183, -39.06977, 0
45.43217, 514, 439, 175, -44.65116, 0
45.45316, 527, 434, 182, -39.76744, 0
45.47432, 528, 431, 184, -38.37209, 0
45.49434, 520, 435, 189, -34.88372, 0
45.51085, 522, 425, 193, -32.09302, 0
45.5303, 514, 425, 199, -27.90698, 0
45.55068, 503, 423, 202, -25.81395, 0
45.57099, 488, 422, 205, -23.72093, 0
45.5918, 472, 421, 205, -23.72093, 0
45.61212, 456, 421, 208, -21.62791, 0
45.63295, 439, 422, 208, -21.62791, 0
45.64909, 420, 422, 208, -21.62791, 0
45.6694, 404, 421, 209, -20.93023, 0
45.69141, 388, 422, 210, -20.23256, 0
45.71151, 376, 421, 210, -20.23256, 0
45.73114, 366, 421, 210, -20.23256, 0
45.75137, 353, 421, 210, -20.23256, 0
45.76782, 339, 421, 209, -20.93023, 0
45.78842, 325, 421, 210, -20.23256, 0
45.81025, 311, 421, 210, -20.23256, 0
45.82933, 295, 421, 210, -20.23256, 0
45.84963, 283, 421, 210, -20.23256, 0
45.87028, 272, 421, 210, -20.23256, 0
45.88759, 258, 421, 210, -20.23256, 0
45.90709, 246, 421, 210, -20.23256, 0
45.92811, 235, 421, 210, -20.23256, 0
45.94799, 224, 421, 210, -20.23256, 0
45.96851, 215, 421, 211, -19.53488, 0
45.98878, 201, 421, 211, -19.53488, 0
46.00514, 189, 421, 211, -19.53488, 0
46.03036, 176, 421, 211, -19.53488, 0
46.04951, 161, 421, 211, -19.53488, 0
46.06802, 150, 421, 211, -19.53488, 0
46.08826, 141, 421, 211, -19.53488, 0
46.11088, 132, 421, 210, -20.23256, 180
46.12614, 123, 414, 193, -32.09302, 180
46.1463, 114, 430, 180, -41.16279, 180
46.16637, 100, 451, 151, -61.39535, 180
46.18687, 99, 453, 155, -58.60465, 180
46.20737, 90, 457, 158, -56.51163, 180
46.22852, 84, 461, 162, -53.72093, 180
46.24915, 78, 466, 166, -50.93023, 180
46.2646, 73, 471, 169, -48.83721, 180
46.285, 72, 477, 195, -30.69767, 180
46.30626, 75, 479, 215, -16.74419, 180
46.32903, 79, 445, 220, -13.25581, 180
46.34716, 74, 442, 223, -11.16279, 180
46.36607, 72, 443, 225, -9.767442, 180
46.38279, 74, 444, 228, -7.674418, 180
46.40288, 75, 443, 225, -9.767442, 180
46.42332, 76, 443, 233, -4.186047, 180
46.44456, 77, 443, 235, -2.790698, 180
46.46415, 75, 443, 234, -3.488372, 180
46.48671, 72, 443, 237, -1.395349, 180
46.50315, 70, 442, 235, -2.790698, 180
46.52401, 66, 443, 234, -3.488372, 180
46.5465, 66, 443, 236, -2.093023, 180
46.56429, 65, 442, 237, -1.395349, 180
46.58738, 64, 443, 237, -1.395349, 180
46.60489, 60, 442, 237, -1.395349, 180
46.62588, 55, 443, 237, -1.395349, 180
46.64421, 51, 442, 237, -1.395349, 180
46.66405, 47, 443, 237, -1.395349, 180
46.6833, 42, 443, 237, -1.395349, 180
46.70409, 59, 443, 237, -1.395349, 180
46.72481, 59, 443, 237, -1.395349, 180
46.7466, 54, 443, 237, -1.395349, 180
46.76252, 49, 443, 237, -1.395349, 180
46.78141, 46, 443, 236, -2.093023, 180
46.80179, 97, 443, 236, -2.093023, 180
46.80179: Grabbed object
46.82461, 119, 443, 237, -1.395349, 180
46.84372, 221, 444, 236, -2.093023, 180
46.86595, 181, 444, 237, -1.395349, 180
46.88017, 144, 444, 236, -2.093023, 180
46.90008, 122, 444, 236, -2.093023, 180
46.92011, 103, 444, 236, -2.093023, 180
46.94057, 87, 444, 236, -2.093023, 180
46.9632, 73, 443, 236, -2.093023, 180
46.9816, 64, 444, 236, -2.093023, 180
47.00185, 171, 443, 236, -2.093023, 180
47.01891, 332, 444, 236, -2.093023, 180
47.03925, 519, 444, 236, -2.093023, 0
47.05919, 605, 459, 168, -49.53489, 0
47.0806, 687, 450, 199, -27.90698, 0
47.10075, 659, 447, 189, -34.88372, 0
47.12094, 657, 451, 182, -39.76744, 0
47.1377, 662, 441, 176, -43.95349, 0
47.15847, 665, 436, 177, -43.25581, 0
47.18084, 676, 431, 178, -42.55814, 0
47.19908, 689, 427, 187, -36.27907, 0
47.21946, 702, 423, 195, -30.69767, 0
47.24043, 709, 423, 199, -27.90698, 0
47.25724, 712, 424, 201, -26.51163, 0
47.279, 713, 424, 199, -27.90698, 0
47.29602, 710, 427, 197, -29.30233, 0
47.31658, 666, 427, 193, -32.09302, 0
47.33733, 549, 436, 190, -34.18605, 0
47.35661, 570, 427, 186, -36.97675, 0
47.37812, 580, 430, 183, -39.06977, 0
47.39596, 559, 432, 179, -41.86047, 0
47.4145, 473, 431, 176, -43.95349, 0
47.43682, 393, 429, 177, -43.25581, 0
47.45697, 423, 429, 176, -43.95349, 0
47.47874, 393, 433, 172, -46.74419, 0
47.49828, 398, 444, 166, -50.93023, 0
47.51527, 380, 442, 153, -60, 0
47.53532, 489, 442, 153, -60, 0
47.55484, 519, 445, 143, -66.97675, 0
47.57633, 568, 441, 142, -67.67442, 0
47.59706, 548, 440, 140, -69.06977, 0
47.61844, 683, 438, 140, -69.06977, 0
47.63346, 684, 438, 138, -70.46512, 0
47.65808, 686, 437, 137, -71.16279, 0
47.67501, 687, 436, 131, -75.34884, 0
47.69661, 692, 434, 135, -72.55814, 0
47.715, 693, 436, 133, -73.95349, 0
47.73541, 691, 437, 129, -76.74419, 0
47.75227, 684, 445, 127, -78.13953, 0
47.77274, 679, 438, 121, -82.32558, 0
47.7937, 684, 439, 115, -86.51163, 0
47.7937: Released object
47.81451, 685, 439, 112, -88.60465, 0
47.83607, 685, 438, 110, -90, 0
47.85492, 685, 439, 106, -92.7907, 0
47.87481, 684, 435, 111, -89.30232, 0
47.89317, 693, 434, 109, -90.69768, 0
47.9132, 687, 434, 109, -90.69768, 0
47.93226, 697, 435, 108, -91.39535, 0
47.95257, 697, 435, 106, -92.7907, 0
47.97459, 698, 436, 104, -94.18604, 0
47.99474, 693, 443, 104, -94.18604, 0
48.01083, 700, 435, 102, -95.5814, 0
48.03105, 702, 434, 101, -96.27907, 0
48.05284, 705, 434, 102, -95.5814, 0
48.07133, 701, 442, 104, -94.18604, 0
48.09243, 611, 429, 105, -93.48837, 0
48.11396, 493, 429, 105, -93.48837, 0
48.12888, 412, 424, 104, -94.18604, 0
48.14915, 349, 425, 106, -92.7907, 0
48.17088, 289, 423, 108, -91.39535, 0
48.1905, 288, 423, 109, -90.69768, 0
48.21168, 342, 424, 110, -90, 0
48.23258, 430, 423, 111, -89.30232, 0
48.25425, 494, 425, 110, -90, 0
48.2712, 589, 425, 110, -90, 0
48.28997, 670, 426, 108, -91.39535, 0
48.31053, 723, 427, 108, -91.39535, 0
48.33135, 722, 426, 106, -92.7907, 0
48.34841, 722, 423, 106, -92.7907, 0
48.36841, 724, 424, 108, -91.39535, 0
48.38516, 726, 424, 109, -90.69768, 0
48.40548, 726, 422, 108, -91.39535, 0
48.42696, 728, 422, 109, -90.69768, 0
48.44709, 728, 421, 110, -90, 0
48.46872, 728, 421, 110, -90, 0
48.48771, 716, 420, 109, -90.69768, 0
48.50425, 694, 422, 109, -90.69768, 0
48.52481, 656, 422, 109, -90.69768, 0
48.54599, 618, 421, 110, -90, 0
48.56581, 584, 420, 109, -90.69768, 0
48.58617, 555, 420, 109, -90.69768, 0
48.60659, 521, 420, 109, -90.69768, 0
48.62346, 491, 420, 109, -90.69768, 0
48.64426, 458, 420, 109, -90.69768, 0
48.66395, 443, 419, 109, -90.69768, 0
48.68571, 405, 419, 109, -90.69768, 0
48.70495, 383, 419, 109, -90.69768, 0
48.72581, 348, 418, 109, -90.69768, 0
48.7462, 328, 418, 109, -90.69768, 0
48.76254, 305, 418, 109, -90.69768, 0
48.78342, 277, 418, 109, -90.69768, 0
48.80356, 259, 417, 109, -90.69768, 0
48.82387, 239, 416, 109, -90.69768, 0
48.84597, 214, 416, 110, -90, 0
48.86477, 194, 416, 109, -90.69768, 0
48.88241, 174, 415, 109, -90.69768, 0
48.90135, 164, 414, 109, -90.69768, 0
48.92285, 150, 414, 109, -90.69768, 0
48.94368, 136, 413, 109, -90.69768, 0
48.96326, 124, 413, 109, -90.69768, 180
48.98376, 106, 436, 88, -105.3488, 180
48.99985, 96, 434, 76, -113.7209, 180
49.02027, 91, 440, 75, -114.4186, 180
49.04084, 78, 448, 82, -109.5349, 180
49.06217, 75, 449, 92, -102.5581, 180
49.08229, 64, 452, 98, -98.37209, 180
49.10345, 56, 451, 111, -89.30232, 180
49.11895, 50, 449, 117, -85.11628, 180
49.13894, 71, 447, 121, -82.32558, 180
49.16011, 95, 453, 124, -80.23256, 180
49.18001, 112, 444, 125, -79.53488, 180
49.20063, 114, 444, 124, -80.23256, 180
49.22095, 104, 444, 125, -79.53488, 180
49.24045, 98, 444, 124, -80.23256, 180
49.2607, 91, 444, 122, -81.62791, 180
49.28244, 91, 445, 122, -81.62791, 180
49.29927, 88, 446, 123, -80.93023, 180
49.31941, 84, 445, 124, -80.23256, 180
49.33926, 78, 445, 125, -79.53488, 180
49.36081, 72, 445, 127, -78.13953, 180
49.37719, 68, 444, 125, -79.53488, 180
49.39672, 64, 444, 131, -75.34884, 180
49.41696, 60, 444, 133, -73.95349, 180
49.43741, 55, 443, 135, -72.55814, 180
49.45815, 55, 442, 133, -73.95349, 180
49.47871, 64, 443, 137, -71.16279, 180
49.4952, 58, 442, 138, -70.46512, 180
49.51628, 73, 441, 140, -69.06977, 180
49.53812, 104, 443, 137, -71.16279, 180
49.5592, 174, 443, 145, -65.5814, 180
49.57985, 250, 443, 146, -64.88372, 180
49.60065, 301, 443, 148, -63.48837, 180
49.61581, 330, 443, 149, -62.7907, 0
49.63622, 377, 437, 177, -43.25581, 0
49.65697, 370, 438, 153, -60, 0
49.67741, 377, 439, 151, -61.39535, 0
49.69885, 377, 430, 144, -66.27907, 0
49.71981, 371, 425, 150, -62.09302, 0
49.7358, 361, 421, 150, -62.09302, 0
49.75508, 349, 417, 164, -52.32558, 0
49.7766, 340, 414, 167, -50.23256, 0
49.79698, 335, 413, 167, -50.23256, 0
49.81688, 325, 412, 167, -50.23256, 0
49.8368, 313, 411, 167, -50.23256, 0
49.85758, 296, 409, 167, -50.23256, 0
49.87594, 285, 409, 167, -50.23256, 0
49.895, 271, 409, 167, -50.23256, 0
49.9152, 253, 408, 167, -50.23256, 0
49.93729, 231, 407, 168, -49.53489, 0
49.9556, 213, 405, 168, -49.53489, 0
49.97654, 207, 405, 168, -49.53489, 0
49.99497, 192, 405, 168, -49.53489, 0
50.01458, 176, 405, 168, -49.53489, 0
50.03423, 158, 404, 168, -49.53489, 0
50.05435, 150, 401, 176, -43.95349, 0
50.07514, 140, 403, 177, -43.25581, 0
50.09665, 134, 403, 177, -43.25581, 180
50.11203, 126, 407, 163, -53.02325, 180
50.13276, 111, 420, 128, -77.44186, 180
50.15193, 105, 431, 118, -84.4186, 180
50.17122, 97, 437, 123, -80.93023, 180
50.19209, 98, 442, 130, -76.04651, 180
50.21329, 103, 443, 142, -67.67442, 180
50.22894, 106, 450, 147, -64.18604, 180
50.24916, 110, 447, 161, -54.41861, 180
50.26957, 107, 444, 167, -50.23256, 180
50.29007, 110, 443, 172, -46.74419, 180
50.31163, 102, 469, 182, -39.76744, 180
50.33139, 105, 443, 184, -38.37209, 180
50.35107, 125, 441, 185, -37.67442, 180
50.36866, 106, 441, 186, -36.97675, 180
50.3879, 97, 445, 189, -34.88372, 180
50.40857, 92, 441, 193, -32.09302, 180
50.42863, 88, 441, 195, -30.69767, 180
50.44974, 87, 441, 195, -30.69767, 180
50.47029, 85, 452, 199, -27.90698, 180
50.4866, 91, 443, 201, -26.51163, 180
50.50718, 93, 443, 206, -23.02326, 180
50.52905, 95, 441, 209, -20.93023, 180
50.54821, 93, 443, 213, -18.13953, 180
50.56926, 85, 444, 215, -16.74419, 180
50.59066, 73, 443, 213, -18.13953, 180
50.60658, 65, 444, 214, -17.44186, 180
50.62669, 74, 451, 223, -11.16279, 180
50.64843, 111, 444, 226, -9.069767, 180
50.66951, 181, 445, 229, -6.976744, 180
50.68857, 278, 444, 231, -5.581395, 180
50.70958, 381, 444, 234, -3.488372, 0
50.73087, 443, 446, 214, -17.44186, 0
50.7463, 479, 444, 198, -28.60465, 0
50.76658, 504, 448, 190, -34.18605, 0
50.78717, 526, 439, 184, -38.37209, 0
50.8097, 536, 435, 186, -36.97675, 0
50.8294, 535, 434, 185, -37.67442, 0
50.84845, 533, 429, 194, -31.39535, 0
50.86494, 517, 429, 188, -35.58139, 0
50.88608, 501, 425, 192, -32.7907, 0
50.9059, 486, 423, 202, -25.81395, 0
50.92634, 471, 421, 209, -20.93023, 0
50.94783, 452, 420, 215, -16.74419, 0
50.96777, 429, 420, 216, -16.04651, 0
50.98261, 404, 421, 216, -16.04651, 0
51.003, 383, 421, 215, -16.74419, 0
51.02465, 364, 422, 215, -16.74419, 0
51.0449, 345, 422, 215, -16.74419, 0
51.06432, 331, 421, 215, -16.74419, 0
51.08451, 314, 421, 215, -16.74419, 0
51.10508, 297, 421, 215, -16.74419, 0
51.12148, 282, 422, 215, -16.74419, 0
51.14211, 271, 421, 215, -16.74419, 0
51.16236, 259, 422, 215, -16.74419, 0
51.18357, 247, 421, 215, -16.74419, 0
51.20592, 233, 421, 215, -16.74419, 0
51.23006, 219, 421, 215, -16.74419, 0
51.24527, 207, 421, 215, -16.74419, 0
51.26468, 196, 421, 215, -16.74419, 0
51.28471, 185, 421, 215, -16.74419, 0
51.30447, 177, 421, 215, -16.74419, 0
51.32346, 166, 422, 215, -16.74419, 0
51.34478, 160, 422, 215, -16.74419, 0
51.36088, 155, 422, 215, -16.74419, 0
51.37874, 145, 422, 215, -16.74419, 0
51.39931, 139, 422, 215, -16.74419, 180
51.41986, 127, 426, 197, -29.30233, 180
51.44188, 117, 434, 177, -43.25581, 180
51.46269, 111, 438, 179, -41.86047, 180
51.47829, 105, 441, 178, -42.55814, 180
51.49765, 96, 442, 184, -38.37209, 180
51.51825, 90, 444, 195, -30.69767, 180
51.53854, 85, 444, 204, -24.4186, 180
51.55996, 80, 445, 207, -22.32558, 180
51.57949, 80, 446, 215, -16.74419, 180
51.59602, 83, 445, 221, -12.55814, 180
51.61689, 87, 445, 227, -8.372093, 180
51.63693, 90, 444, 230, -6.27907, 180
51.65899, 92, 444, 234, -3.488372, 180
51.67823, 94, 444, 235, -2.790698, 180
51.69822, 90, 439, 237, -1.395349, 180
51.71877, 91, 443, 239, 0, 180
51.73485, 89, 443, 238, -0.6976744, 180
51.75555, 85, 443, 239, 0, 180
51.7772, 82, 443, 239, 0, 180
51.79656, 77, 443, 239, 0, 180
51.79656: Grabbed object
51.81705, 78, 443, 240, 0.6976744, 180
51.83743, 77, 443, 240, 0.6976744, 180
51.85537, 79, 435, 248, 6.27907, 180
51.8757, 77, 443, 239, 0, 180
51.896, 77, 443, 240, 0.6976744, 180
51.91634, 76, 444, 240, 0.6976744, 180
51.93642, 74, 443, 240, 0.6976744, 180
51.95649, 72, 442, 240, 0.6976744, 180
51.97779, 67, 443, 240, 0.6976744, 180
51.99424, 65, 443, 240, 0.6976744, 180
52.01355, 59, 443, 240, 0.6976744, 180
52.03456, 57, 443, 240, 0.6976744, 180
52.0546, 55, 442, 240, 0.6976744, 180
52.07691, 53, 443, 240, 0.6976744, 180
52.09525, 50, 443, 240, 0.6976744, 180
52.11185, 47, 443, 240, 0.6976744, 180
52.13234, 45, 443, 240, 0.6976744, 180
52.15268, 74, 444, 240, 0.6976744, 180
52.17295, 114, 444, 241, 1.395349, 180
52.19579, 178, 444, 241, 1.395349, 180
52.21432, 278, 445, 241, 1.395349, 180
52.23072, 434, 444, 241, 1.395349, 0
52.25102, 512, 448, 233, -4.186047, 0
52.27235, 616, 449, 203, -25.11628, 0
52.29421, 564, 450, 189, -34.88372, 0
52.31386, 560, 446, 178, -42.55814, 0
52.33408, 608, 443, 177, -43.25581, 0
52.35381, 595, 440, 173, -46.04651, 0
52.37127, 542, 443, 176, -43.95349, 0
52.39127, 494, 434, 176, -43.95349, 0
52.41166, 429, 433, 184, -38.37209, 0
52.43151, 432, 427, 186, -36.97675, 0
52.45183, 429, 426, 187, -36.27907, 0
52.47258, 467, 425, 186, -36.97675, 0
52.48975, 502, 428, 180, -41.16279, 0
52.51185, 601, 431, 184, -38.37209, 0
52.53162, 684, 434, 175, -44.65116, 0
52.55034, 640, 433, 174, -45.34884, 0
52.57059, 643, 438, 168, -49.53489, 0
52.59163, 661, 436, 165, -51.62791, 0
52.60891, 682, 440, 159, -55.81395, 0
52.62839, 663, 445, 155, -58.60465, 0
52.64854, 629, 446, 151, -61.39535, 0
52.66899, 607, 445, 145, -65.5814, 0
52.68926, 551, 443, 136, -71.86047, 0
52.71201, 663, 442, 139, -69.76744, 0
52.73048, 588, 439, 136, -71.86047, 0
52.74866, 557, 439, 132, -74.65116, 0
52.76907, 500, 443, 129, -76.74419, 0
52.78971, 458, 438, 126, -78.83721, 0
52.81037, 472, 448, 124, -80.23256, 0
52.83063, 437, 440, 116, -85.81396, 0
52.85151, 410, 438, 116, -85.81396, 0
52.86728, 444, 436, 114, -87.2093, 0
52.86728: Released object
52.88807, 422, 436, 111, -89.30232, 0
52.90895, 461, 437, 107, -92.09303, 0
52.93156, 458, 441, 110, -90, 0
52.94932, 531, 439, 110, -90, 0
52.9698, 589, 435, 102, -95.5814, 0
52.98683, 616, 433, 105, -93.48837, 0
53.00802, 601, 433, 104, -94.18604, 0
53.02794, 630, 432, 103, -94.88372, 0
53.0463, 696, 432, 102, -95.5814, 0
53.06627, 644, 432, 103, -94.88372, 0
53.08693, 613, 432, 102, -95.5814, 0
53.10336, 604, 432, 100, -96.97675, 0
53.12375, 547, 431, 101, -96.27907, 0
53.14591, 497, 431, 100, -96.97675, 0
53.16642, 494, 429, 101, -96.27907, 0
53.18724, 480, 428, 104, -94.18604, 0
53.20952, 424, 425, 105, -93.48837, 0
53.22863, 341, 426, 105, -93.48837, 0
53.24561, 287, 425, 105, -93.48837, 0
53.26458, 239, 425, 103, -94.88372, 0
53.28513, 210, 426, 102, -95.5814, 0
53.30653, 195, 425, 102, -95.5814, 0
53.32713, 190, 424, 102, -95.5814, 0
53.34898, 209, 423, 105, -93.48837, 0
53.36676, 228, 423, 105, -93.48837, 0
53.38196, 254, 424, 106, -92.7907, 0
53.40221, 250, 424, 106, -92.7907, 0
53.42299, 278, 425, 106, -92.7907, 0
53.44474, 261, 424, 105, -93.48837, 0
53.46376, 275, 424, 106, -92.7907, 0
53.48, 280, 425, 106, -92.7907, 0
53.50037, 251, 425, 106, -92.7907, 0
53.52155, 259, 426, 106, -92.7907, 0
53.54225, 250, 425, 106, -92.7907, 0
53.56329, 236, 425, 106, -92.7907, 0
53.58235, 223, 424, 106, -92.7907, 0
53.5987, 224, 425, 106, -92.7907, 0
53.61914, 205, 425, 105, -93.48837, 0
53.63962, 184, 425, 106, -92.7907, 0
53.66113, 165, 425, 106, -92.7907, 0
53.68087, 165, 426, 106, -92.7907, 0
53.7011, 141, 425, 106, -92.7907, 0
53.71749, 121, 424, 105, -93.48837, 180
53.73804, 100, 428, 93, -101.8605, 180
53.75838, 87, 436, 81, -110.2326, 180
53.77975, 78, 447, 79, -111.6279, 180
53.79948, 77, 448, 84, -108.1395, 180
53.81992, 69, 452, 86, -106.7442, 180
53.83617, 67, 450, 101, -96.27907, 180
53.8567, 60, 446, 108, -91.39535, 180
53.87801, 56, 448, 105, -93.48837, 180
53.8977, 50, 444, 113, -87.90697, 180
53.92136, 48, 444, 113, -87.90697, 180
53.94116, 64, 444, 110, -90, 180
53.95932, 76, 445, 108, -91.39535, 180
53.98055, 83, 445, 108, -91.39535, 180
53.99864, 85, 445, 109, -90.69768, 180
54.0191, 82, 446, 111, -89.30232, 180
54.03973, 74, 446, 112, -88.60465, 180
54.06027, 63, 446, 115, -86.51163, 180
54.08113, 54, 446, 119, -83.72093, 180
54.09511, 48, 443, 122, -81.62791, 180
54.11531, 42, 444, 122, -81.62791, 180
54.13785, 37, 450, 123, -80.93023, 180
54.15863, 36, 444, 123, -80.93023, 180
54.17974, 33, 444, 123, -80.93023, 180
54.20068, 32, 445, 125, -79.53488, 180
54.21738, 34, 445, 126, -78.83721, 180
54.23737, 29, 445, 128, -77.44186, 180
54.25584, 28, 445, 131, -75.34884, 180
54.27592, 30, 444, 134, -73.25581, 180
54.29646, 30, 444, 136, -71.86047, 180
54.31623, 31, 443, 137, -71.16279, 180
54.33239, 30, 442, 137, -71.16279, 180
54.35284, 32, 443, 138, -70.46512, 180
54.37385, 31, 444, 139, -69.76744, 180
54.39482, 31, 442, 142, -67.67442, 180
54.41485, 32, 442, 145, -65.5814, 180
54.43683, 34, 442, 145, -65.5814, 180
54.45337, 34, 442, 146, -64.88372, 180
54.47416, 35, 444, 141, -68.37209, 180
54.49426, 33, 443, 149, -62.7907, 180
54.51495, 34, 442, 150, -62.09302, 180
54.53485, 33, 441, 155, -58.60465, 180
54.55481, 32, 449, 158, -56.51163, 180
54.57577, 33, 443, 159, -55.81395, 180
54.59449, 39, 441, 157, -57.2093, 180
54.61142, 47, 442, 163, -53.02325, 180
54.63209, 63, 441, 162, -53.72093, 180
54.65144, 86, 441, 170, -48.13953, 180
54.67186, 109, 447, 172, -46.74419, 180
54.69404, 130, 446, 173, -46.04651, 180
54.71112, 151, 441, 174, -45.34884, 180
54.73157, 161, 440, 171, -47.44186, 180
54.75149, 174, 440, 178, -42.55814, 180
54.77175, 184, 440, 183, -39.06977, 180
54.793, 188, 446, 176, -43.95349, 180
54.81433, 196, 440, 184, -38.37209, 180
54.83087, 194, 441, 187, -36.27907, 180
54.84975, 190, 440, 191, -33.48837, 180
54.87054, 182, 441, 195, -30.69767, 180
54.89056, 163, 442, 197, -29.30233, 180
54.91215, 156, 442, 199, -27.90698, 180
54.93187, 151, 442, 201, -26.51163, 180
54.94845, 143, 447, 203, -25.11628, 180
54.96828, 134, 442, 202, -25.81395, 180
54.98917, 124, 441, 212, -18.83721, 180
55.00955, 116, 448, 215, -16.74419, 180
55.0305, 111, 442, 216, -16.04651, 180
55.05202, 110, 443, 217, -15.34884, 180
55.06762, 111, 443, 218, -14.65116, 180
55.08724, 116, 444, 220, -13.25581, 180
55.10827, 122, 445, 223, -11.16279, 180
55.12954, 133, 443, 227, -8.372093, 180
55.14882, 146, 443, 230, -6.27907, 180
55.16948, 151, 444, 232, -4.883721, 180
55.18952, 154, 444, 234, -3.488372, 180
55.20648, 152, 444, 234, -3.488372, 180
55.22699, 153, 444, 236, -2.093023, 180
55.24821, 156, 443, 238, -0.6976744, 180
55.26898, 156, 443, 237, -1.395349, 180
55.28812, 158, 444, 237, -1.395349, 180
55.30906, 160, 443, 238, -0.6976744, 180
55.32722, 168, 442, 240, 0.6976744, 180
55.34755, 173, 443, 240, 0.6976744, 180
55.36467, 178, 443, 240, 0.6976744, 180
55.385, 182, 443, 240, 0.6976744, 180
55.40545, 183, 443, 239, 0, 180
55.42635, 182, 442, 240, 0.6976744, 180
55.44274, 181, 443, 240, 0.6976744, 180
55.46276, 180, 446, 238, -0.6976744, 180
55.4838, 181, 443, 241, 1.395349, 180
55.50353, 177, 443, 241, 1.395349, 180
55.52348, 178, 442, 241, 1.395349, 180
55.54076, 180, 443, 240, 0.6976744, 180
55.56133, 186, 442, 241, 1.395349, 180
55.58128, 196, 443, 240, 0.6976744, 180
55.60439, 209, 442, 240, 0.6976744, 180
55.62457, 226, 442, 240, 0.6976744, 180
55.64709, 243, 443, 240, 0.6976744, 180
55.66322, 264, 443, 240, 0.6976744, 180
55.68229, 298, 442, 240, 0.6976744, 0
55.70106, 331, 446, 223, -11.16279, 0
55.72051, 360, 446, 200, -27.2093, 0
55.74302, 392, 446, 186, -36.97675, 0
55.762, 432, 441, 187, -36.27907, 0
55.78182, 467, 439, 182, -39.76744, 0
55.79816, 498, 433, 187, -36.27907, 0
55.81871, 515, 431, 186, -36.97675, 0
55.83892, 524, 428, 194, -31.39535, 0
55.86023, 526, 425, 197, -29.30233, 0
55.8806, 524, 423, 199, -27.90698, 0
55.90054, 523, 422, 206, -23.02326, 0
55.91765, 517, 421, 213, -18.13953, 0
55.93726, 500, 421, 215, -16.74419, 0
55.96058, 479, 422, 215, -16.74419, 0
55.98035, 458, 422, 215, -16.74419, 0
56.00065, 436, 421, 215, -16.74419, 0
56.02083, 417, 422, 215, -16.74419, 0
56.03779, 397, 422, 215, -16.74419, 0
56.05828, 378, 421, 215, -16.74419, 0
56.07927, 365, 422, 215, -16.74419, 0
56.09954, 356, 422, 215, -16.74419, 0
56.1195, 345, 421, 215, -16.74419, 0
56.14164, 333, 420, 215, -16.74419, 0
56.16116, 318, 422, 215, -16.74419, 0
56.1782, 299, 422, 215, -16.74419, 0
56.19562, 282, 421, 215, -16.74419, 0
56.21603, 270, 422, 215, -16.74419, 0
56.23634, 257, 421, 215, -16.74419, 0
56.25927, 243, 421, 215, -16.74419, 0
56.28004, 234, 422, 215, -16.74419, 0
56.29665, 226, 422, 215, -16.74419, 0
56.31693, 221, 421, 215, -16.74419, 0
56.33839, 216, 421, 215, -16.74419, 0
56.35883, 211, 421, 215, -16.74419, 0
56.37889, 202, 422, 215, -16.74419, 0
56.39896, 194, 422, 215, -16.74419, 0
56.41356, 187, 421, 215, -16.74419, 0
56.43311, 178, 421, 215, -16.74419, 0
56.45401, 172, 422, 215, -16.74419, 0
56.47482, 169, 421, 215, -16.74419, 0
56.4953, 161, 421, 215, -16.74419, 0
56.51483, 156, 421, 215, -16.74419, 0
56.5315, 151, 421, 215, -16.74419, 0
56.55149, 145, 421, 215, -16.74419, 0
56.57343, 139, 421, 215, -16.74419, 180
56.59426, 134, 420, 215, -16.74419, 180
56.61398, 123, 430, 182, -39.76744, 180
56.63395, 121, 436, 179, -41.86047, 180
56.65022, 120, 439, 176, -43.95349, 180
56.67066, 120, 440, 179, -41.86047, 180
56.69114, 126, 442, 188, -35.58139, 180
56.71154, 129, 450, 198, -28.60465, 180
56.7319, 136, 446, 206, -23.02326, 180
56.75272, 154, 446, 210, -20.23256, 180
56.77254, 167, 447, 216, -16.04651, 180
56.79198, 177, 447, 223, -11.16279, 180
56.81357, 180, 447, 228, -7.674418, 180
56.81357: Grabbed object
56.83237, 183, 446, 232, -4.883721, 180
56.85383, 184, 446, 234, -3.488372, 180
56.87414, 178, 445, 237, -1.395349, 180
56.889, 173, 444, 239, 0, 180
56.90913, 168, 444, 239, 0, 180
56.92884, 163, 444, 239, 0, 180
56.95098, 159, 444, 240, 0.6976744, 180
56.97243, 155, 444, 240, 0.6976744, 180
56.99364, 148, 444, 238, -0.6976744, 180
57.01046, 141, 444, 239, 0, 180
57.03006, 133, 444, 239, 0, 180
57.04936, 130, 444, 239, 0, 180
57.06971, 127, 444, 240, 0.6976744, 180
57.09077, 127, 443, 240, 0.6976744, 180
57.11215, 128, 444, 240, 0.6976744, 180
57.13117, 121, 444, 240, 0.6976744, 180
57.14768, 135, 445, 240, 0.6976744, 180
57.16797, 138, 445, 240, 0.6976744, 180
57.18861, 130, 446, 240, 0.6976744, 180
57.21097, 135, 448, 240, 0.6976744, 180
57.23064, 147, 449, 240, 0.6976744, 180
57.24996, 172, 450, 240, 0.6976744, 180
57.26685, 298, 452, 239, 0, 180
57.28752, 346, 453, 239, 0, 0
57.30745, 318, 459, 207, -22.32558, 0
57.329, 340, 458, 184, -38.37209, 0
57.34998, 368, 457, 174, -45.34884, 0
57.36951, 463, 450, 167, -50.23256, 0
57.38586, 481, 449, 165, -51.62791, 0
57.4052, 471, 446, 164, -52.32558, 0
57.42598, 472, 443, 158, -56.51163, 0
57.44529, 506, 448, 170, -48.13953, 0
57.46599, 486, 436, 170, -48.13953, 0
57.48546, 472, 438, 172, -46.74419, 0
57.50613, 490, 433, 172, -46.74419, 0
57.52304, 617, 434, 171, -47.44186, 0
57.54458, 605, 443, 169, -48.83721, 0
57.56362, 572, 439, 158, -56.51163, 0
57.58455, 607, 436, 162, -53.72093, 0
57.60501, 601, 438, 162, -53.72093, 0
57.62687, 604, 444, 159, -55.81395, 0
57.64245, 611, 439, 152, -60.69767, 0
57.66289, 552, 441, 147, -64.18604, 0
57.68385, 543, 442, 143, -66.97675, 0
57.70341, 519, 441, 137, -71.16279, 0
57.72367, 550, 439, 138, -70.46512, 0
57.74512, 619, 444, 138, -70.46512, 0
57.76134, 547, 439, 132, -74.65116, 0
57.7812, 550, 441, 126, -78.83721, 0
57.80159, 543, 446, 127, -78.13953, 0
57.82198, 504, 439, 124, -80.23256, 0
57.84608, 543, 443, 120, -83.02325, 0
57.8633, 541, 439, 116, -85.81396, 0
57.87937, 516, 436, 117, -85.11628, 0
57.89977, 445, 436, 113, -87.90697, 0
57.89977: Released object
57.92086, 442, 443, 114, -87.2093, 0
57.94064, 443, 442, 114, -87.2093, 0
57.96219, 632, 439, 114, -87.2093, 0
57.98197, 646, 434, 108, -91.39535, 0
58.00229, 694, 436, 102, -95.5814, 0
58.01863, 673, 438, 99, -97.67442, 0
58.03909, 693, 435, 103, -94.88372, 0
58.06122, 694, 435, 102, -95.5814, 0
58.08004, 670, 443, 102, -95.5814, 0
58.10043, 642, 433, 102, -95.5814, 0
58.12095, 667, 433, 99, -97.67442, 0
58.13721, 621, 431, 101, -96.27907, 0
58.15802, 707, 433, 103, -94.88372, 0
58.17889, 682, 431, 102, -95.5814, 0
58.19986, 690, 431, 102, -95.5814, 0
58.21951, 660, 429, 103, -94.88372, 0
58.23982, 625, 428, 105, -93.48837, 0
58.25795, 589, 428, 105, -93.48837, 0
58.27944, 599, 428, 105, -93.48837, 0
58.29709, 575, 427, 104, -94.18604, 0
58.31767, 571, 424, 99, -97.67442, 0
58.33887, 567, 424, 102, -95.5814, 0
58.35988, 557, 424, 102, -95.5814, 0
58.37938, 538, 423, 104, -94.18604, 0
58.39679, 508, 423, 106, -92.7907, 0
58.41604, 490, 423, 106, -92.7907, 0
58.43611, 466, 423, 107, -92.09303, 0
58.45621, 442, 423, 106, -92.7907, 0
58.47951, 427, 423, 106, -92.7907, 0
58.49723, 411, 422, 106, -92.7907, 0
58.51409, 395, 421, 106, -92.7907, 0
58.53422, 377, 421, 107, -92.09303, 0
58.55479, 365, 421, 106, -92.7907, 0
58.57518, 347, 419, 106, -92.7907, 0
58.59559, 328, 417, 107, -92.09303, 0
58.61588, 306, 416, 107, -92.09303, 0
58.63249, 254, 416, 107, -92.09303, 0
58.65345, 206, 415, 107, -92.09303, 0
58.67379, 176, 414, 107, -92.09303, 0
58.69567, 148, 413, 107, -92.09303, 0
58.7142, 137, 412, 107, -92.09303, 180
58.7348, 123, 423, 81, -110.2326, 180
58.75113, 111, 434, 71, -117.2093, 180
58.77198, 109, 443, 74, -115.1163, 180
58.7929, 104, 446, 81, -110.2326, 180
58.81253, 101, 449, 94, -101.1628, 180
58.83332, 97, 450, 103, -94.88372, 180
58.85375, 105, 449, 110, -90, 180
58.87401, 105, 448, 114, -87.2093, 180
58.89226, 110, 446, 117, -85.11628, 180
58.91238, 111, 445, 118, -84.4186, 180
58.93124, 114, 443, 117, -85.11628, 180
58.95179, 110, 444, 118, -84.4186, 180
58.97223, 105, 443, 119, -83.72093, 180
58.99365, 104, 443, 119, -83.72093, 180
59.01006, 98, 443, 119, -83.72093, 180
59.02987, 93, 443, 120, -83.02325, 180
59.05017, 86, 444, 122, -81.62791, 180
59.07037, 86, 443, 114, -87.2093, 180
59.09146, 81, 443, 126, -78.83721, 180
59.11306, 78, 442, 129, -76.74419, 180
59.12806, 78, 446, 132, -74.65116, 180
59.14836, 80, 443, 133, -73.95349, 180
59.17135, 75, 442, 136, -71.86047, 180
59.19193, 64, 441, 140, -69.06977, 180
59.21341, 54, 441, 142, -67.67442, 180
59.23098, 46, 441, 143, -66.97675, 180
59.25145, 41, 443, 139, -69.76744, 180
59.2678, 43, 442, 148, -63.48837, 180
59.28865, 38, 441, 148, -63.48837, 180
59.30882, 40, 441, 154, -59.30233, 180
59.33047, 50, 443, 151, -61.39535, 180
59.35056, 54, 440, 157, -57.2093, 180
59.3702, 62, 441, 161, -54.41861, 180
59.38707, 67, 440, 165, -51.62791, 180
59.40757, 81, 439, 165, -51.62791, 180
59.42904, 88, 440, 168, -49.53489, 180
59.44736, 102, 439, 169, -48.83721, 180
59.46782, 114, 439, 171, -47.44186, 180
59.48898, 121, 439, 173, -46.04651, 180
59.50492, 131, 441, 174, -45.34884, 180
59.52535, 138, 438, 176, -43.95349, 180
59.54646, 131, 446, 183, -39.06977, 180
59.56616, 122, 440, 186, -36.97675, 180
59.58728, 113, 442, 189, -34.88372, 180
59.60701, 98, 445, 194, -31.39535, 180
59.6244, 95, 440, 198, -28.60465, 180
59.64514, 103, 441, 202, -25.81395, 180
59.66526, 109, 444, 199, -27.90698, 180
59.68526, 106, 446, 212, -18.83721, 180
59.7057, 106, 439, 218, -14.65116, 180
59.72725, 110, 439, 229, -6.976744, 180
59.74776, 117, 437, 237, -1.395349, 180
59.76344, 116, 436, 240, 0.6976744, 180
59.78365, 121, 436, 242, 2.093023, 180
59.80435, 123, 439, 236, -2.093023, 180
59.82708, 125, 437, 242, 2.093023, 180
59.845, 122, 437, 242, 2.093023, 180
59.86613, 122, 437, 243, 2.790698, 180
59.88209, 120, 437, 244, 3.488372, 180
59.90271, 116, 437, 244, 3.488372, 180
59.92377, 115, 438, 243, 2.790698, 180
59.94535, 117, 437, 244, 3.488372, 180
59.96609, 126, 438, 244, 3.488372, 180
59.98436, 129, 437, 244, 3.488372, 180
60.00262, 131, 438, 245, 4.186047, 180
60.02333, 133, 437, 245, 4.186047, 180
60.04171, 133, 438, 245, 4.186047, 180
60.06182, 135, 438, 245, 4.186047, 180
60.08239, 135, 437, 244, 3.488372, 180
60.10363, 136, 437, 245, 4.186047, 180
60.12346, 135, 437, 245, 4.186047, 180
60.13963, 136, 437, 245, 4.186047, 180
60.16143, 135, 438, 245, 4.186047, 180
60.18145, 136, 438, 246, 4.883721, 180
60.20097, 136, 437, 247, 5.581395, 180
60.22155, 134, 437, 247, 5.581395, 180
60.24208, 131, 438, 247, 5.581395, 180
60.26114, 130, 437, 247, 5.581395, 180
60.28151, 128, 437, 247, 5.581395, 180
60.30468, 131, 437, 248, 6.27907, 180
60.32046, 133, 436, 249, 6.976744, 180
60.34106, 135, 435, 249, 6.976744, 180
60.362, 136, 433, 249, 6.976744, 180
60.37904, 138, 429, 249, 6.976744, 180
60.39869, 146, 424, 248, 6.27907, 180
60.41868, 164, 418, 244, 3.488372, 180
60.43847, 204, 409, 232, -4.883721, 180
60.46001, 248, 410, 191, -33.48837, 180
60.47983, 284, 450, 177, -43.25581, 180
60.50025, 329, 451, 177, -43.25581, 0
60.5164, 417, 436, 242, 2.093023, 0
60.53683, 450, 439, 216, -16.04651, 0
60.55738, 493, 440, 202, -25.81395, 0
60.57829, 531, 441, 195, -30.69767, 0
60.59916, 556, 440, 189, -34.88372, 0
60.61874, 579, 441, 184, -38.37209, 0
60.63734, 587, 442, 182, -39.76744, 0
60.65826, 592, 439, 176, -43.95349, 0
60.67947, 594, 437, 182, -39.76744, 0
60.69937, 593, 434, 183, -39.06977, 0
60.71972, 593, 431, 189, -34.88372, 0
60.73994, 585, 429, 194, -31.39535, 0
60.75732, 578, 426, 199, -27.90698, 0
60.7781, 566, 424, 203, -25.11628, 0
60.79813, 552, 423, 207, -22.32558, 0
60.82055, 538, 423, 209, -20.93023, 0
60.83797, 522, 423, 210, -20.23256, 0
60.85623, 507, 423, 209, -20.93023, 0
60.8776, 488, 423, 210, -20.23256, 0
60.89502, 473, 422, 211, -19.53488, 0
60.9139, 459, 423, 211, -19.53488, 0
60.9341, 448, 423, 211, -19.53488, 0
60.95496, 435, 423, 211, -19.53488, 0
60.97509, 423, 422, 211, -19.53488, 0
60.99597, 411, 423, 211, -19.53488, 0
61.01283, 395, 423, 209, -20.93023, 0
61.03382, 375, 422, 209, -20.93023, 0
61.05375, 359, 422, 210, -20.23256, 0
61.07373, 337, 422, 210, -20.23256, 0
61.09543, 318, 422, 210, -20.23256, 0
61.11493, 304, 421, 210, -20.23256, 0
61.13141, 288, 422, 210, -20.23256, 0
61.15151, 275, 421, 210, -20.23256, 0
61.17291, 262, 422, 210, -20.23256, 0
61.19367, 254, 421, 210, -20.23256, 0
61.21325, 243, 420, 210, -20.23256, 0
61.23407, 234, 419, 210, -20.23256, 0
61.25328, 224, 420, 210, -20.23256, 0
61.26961, 218, 420, 210, -20.23256, 0
61.29056, 207, 420, 210, -20.23256, 0
61.31146, 199, 420, 210, -20.23256, 0
61.33129, 195, 419, 210, -20.23256, 0
61.35196, 192, 420, 210, -20.23256, 0
61.37255, 189, 420, 210, -20.23256, 0
61.39056, 188, 421, 210, -20.23256, 0
61.41048, 184, 422, 210, -20.23256, 0
61.42962, 174, 423, 210, -20.23256, 0
61.45122, 163, 423, 210, -20.23256, 0
61.47104, 147, 423, 209, -20.93023, 0
61.48701, 132, 424, 208, -21.62791, 180
61.50783, 105, 428, 192, -32.7907, 180
61.52838, 115, 436, 171, -47.44186, 180
61.54865, 170, 442, 167, -50.23256, 180
61.56889, 237, 442, 176, -43.95349, 180
61.58923, 289, 444, 184, -38.37209, 180
61.61113, 337, 445, 192, -32.7907, 0
61.62751, 389, 438, 229, -6.976744, 0
61.64677, 384, 440, 200, -27.2093, 0
61.66799, 370, 443, 187, -36.27907, 0
61.68769, 347, 436, 184, -38.37209, 0
61.70827, 311, 436, 185, -37.67442, 0
61.72859, 274, 431, 181, -40.46511, 0
61.74529, 229, 427, 190, -34.18605, 0
61.76588, 185, 427, 186, -36.97675, 0
61.78616, 149, 426, 188, -35.58139, 0
61.80625, 122, 424, 197, -29.30233, 180
61.82841, 103, 426, 199, -27.90698, 180
61.84756, 83, 432, 174, -45.34884, 180
61.86565, 77, 438, 171, -47.44186, 180
61.88432, 63, 442, 172, -46.74419, 180
61.90488, 57, 444, 181, -40.46511, 180
61.92614, 52, 445, 187, -36.27907, 180
61.94574, 52, 452, 197, -29.30233, 180
61.9662, 75, 446, 203, -25.11628, 180
61.98286, 115, 455, 209, -20.93023, 180
62.00351, 162, 444, 216, -16.04651, 180
62.02415, 201, 444, 225, -9.767442, 180
62.02415: Grabbed object
62.04538, 236, 443, 228, -7.674418, 180
62.06458, 254, 442, 229, -6.976744, 180
62.08596, 251, 442, 229, -6.976744, 0
62.10532, 190, 456, 162, -53.72093, 0
62.1219, 170, 445, 205, -23.72093, 0
62.14333, 153, 443, 185, -37.67442, 0
62.16322, 160, 438, 178, -42.55814, 0
62.18665, 174, 438, 176, -43.95349, 0
62.20658, 185, 434, 175, -44.65116, 0
62.22756, 192, 431, 182, -39.76744, 0
62.24496, 199, 429, 184, -38.37209, 0
62.26326, 204, 428, 186, -36.97675, 0
62.28252, 209, 427, 188, -35.58139, 0
62.30427, 210, 424, 190, -34.18605, 0
62.3236, 210, 432, 195, -30.69767, 0
62.34564, 216, 422, 197, -29.30233, 0
62.36131, 212, 421, 202, -25.81395, 0
62.38095, 212, 421, 205, -23.72093, 0
62.40109, 205, 420, 205, -23.72093, 0
62.42132, 196, 420, 205, -23.72093, 0
62.44146, 199, 420, 205, -23.72093, 0
62.4599, 198, 421, 204, -24.4186, 0
62.4785, 190, 420, 205, -23.72093, 0
62.49871, 186, 421, 205, -23.72093, 0
62.52027, 183, 421, 205, -23.72093, 0
62.53925, 175, 421, 205, -23.72093, 0
62.56078, 176, 422, 205, -23.72093, 0
62.57729, 169, 422, 205, -23.72093, 0
62.59675, 165, 422, 205, -23.72093, 0
62.61743, 160, 422, 205, -23.72093, 0
62.6377, 156, 421, 204, -24.4186, 0
62.65873, 153, 420, 204, -24.4186, 0
62.67849, 149, 420, 204, -24.4186, 0
62.69525, 138, 420, 204, -24.4186, 180
62.7157, 119, 433, 177, -43.25581, 180
62.73973, 108, 432, 160, -55.11628, 180
62.75886, 101, 438, 158, -56.51163, 180
62.7806, 99, 441, 165, -51.62791, 180
62.79982, 91, 440, 172, -46.74419, 180
62.82001, 82, 446, 182, -39.76744, 180
62.83745, 74, 445, 190, -34.18605, 180
62.85826, 63, 448, 199, -27.90698, 180
62.87827, 60, 445, 207, -22.32558, 180
62.89861, 90, 446, 213, -18.13953, 180
62.91866, 152, 445, 218, -14.65116, 180
62.94056, 263, 446, 222, -11.86047, 180
62.95717, 380, 445, 226, -9.069767, 0
62.97586, 449, 447, 212, -18.83721, 0
62.99752, 488, 446, 194, -31.39535, 0
63.01683, 509, 444, 182, -39.76744, 0
63.03731, 527, 444, 177, -43.25581, 0
63.05839, 539, 438, 177, -43.25581, 0
63.07453, 536, 436, 177, -43.25581, 0
63.09494, 542, 432, 181, -40.46511, 0
63.116, 532, 429, 187, -36.27907, 0
63.13646, 496, 435, 190, -34.18605, 0
63.158, 492, 431, 193, -32.09302, 0
63.17703, 483, 427, 192, -32.7907, 0
63.19473, 426, 427, 190, -34.18605, 0
63.21693, 374, 435, 191, -33.48837, 0
63.23514, 313, 434, 177, -43.25581, 0
63.25547, 253, 433, 182, -39.76744, 0
63.27555, 212, 435, 177, -43.25581, 0
63.29657, 256, 441, 165, -51.62791, 0
63.31714, 283, 442, 163, -53.02325, 0
63.33304, 305, 445, 154, -59.30233, 0
63.35464, 316, 447, 148, -63.48837, 0
63.3735, 339, 459, 143, -66.97675, 0
63.39236, 355, 447, 135, -72.55814, 0
63.41212, 364, 448, 133, -73.95349, 0
63.43378, 365, 441, 132, -74.65116, 0
63.4492, 376, 441, 130, -76.04651, 0
63.46944, 347, 440, 125, -79.53488, 0
63.4897, 342, 441, 124, -80.23256, 0
63.51134, 326, 438, 126, -78.83721, 0
63.53081, 319, 440, 120, -83.02325, 0
63.55128, 309, 441, 123, -80.93023, 0
63.56776, 287, 436, 121, -82.32558, 0
63.58898, 270, 436, 120, -83.02325, 0
63.60868, 253, 436, 117, -85.11628, 0
63.62908, 268, 437, 115, -86.51163, 0
63.62908: Released object
63.65184, 210, 436, 111, -89.30232, 0
63.67253, 181, 436, 110, -90, 0
63.69316, 171, 434, 109, -90.69768, 0
63.71013, 167, 434, 108, -91.39535, 0
63.73087, 162, 433, 108, -91.39535, 0
63.75006, 160, 433, 100, -96.97675, 0
63.77071, 162, 431, 108, -91.39535, 0
63.79358, 195, 430, 109, -90.69768, 0
63.80986, 202, 429, 110, -90, 0
63.82888, 269, 429, 111, -89.30232, 0
63.84829, 343, 429, 113, -87.90697, 0
63.86877, 363, 427, 114, -87.2093, 0
63.88931, 376, 428, 116, -85.81396, 0
63.90982, 359, 428, 117, -85.11628, 0
63.93118, 319, 428, 115, -86.51163, 0
63.94504, 278, 428, 114, -87.2093, 0
63.96516, 274, 427, 114, -87.2093, 0
63.98571, 309, 428, 113, -87.90697, 0
64.00698, 290, 426, 113, -87.90697, 0
64.02736, 267, 426, 114, -87.2093, 0
64.0469, 253, 427, 113, -87.90697, 0
64.06372, 286, 427, 113, -87.90697, 0
64.08357, 286, 426, 112, -88.60465, 0
64.10412, 491, 427, 113, -87.90697, 0
64.12481, 439, 426, 113, -87.90697, 0
64.14547, 400, 427, 113, -87.90697, 0
64.16553, 501, 426, 115, -86.51163, 0
64.18217, 436, 426, 115, -86.51163, 0
64.20279, 481, 426, 115, -86.51163, 0
64.22427, 690, 426, 115, -86.51163, 0
64.24486, 623, 425, 115, -86.51163, 0
64.26582, 704, 424, 115, -86.51163, 0
64.28728, 727, 424, 115, -86.51163, 0
64.30426, 726, 424, 115, -86.51163, 0
64.32451, 726, 424, 115, -86.51163, 0
64.34523, 726, 423, 115, -86.51163, 0
64.36523, 727, 423, 115, -86.51163, 0
64.38593, 727, 422, 115, -86.51163, 0
64.40595, 727, 420, 115, -86.51163, 0
64.42671, 727, 420, 115, -86.51163, 0
64.4431, 727, 419, 115, -86.51163, 0
64.46171, 726, 417, 116, -85.81396, 0
64.48126, 727, 416, 116, -85.81396, 0
64.5019, 727, 414, 116, -85.81396, 0
64.52229, 727, 414, 116, -85.81396, 0
64.54362, 727, 413, 116, -85.81396, 0
64.55969, 726, 414, 116, -85.81396, 0
64.57922, 726, 413, 116, -85.81396, 0
64.59959, 725, 412, 116, -85.81396, 0
64.62038, 726, 412, 116, -85.81396, 0
64.6421, 702, 411, 116, -85.81396, 0
64.66174, 577, 411, 116, -85.81396, 0
64.67816, 480, 412, 116, -85.81396, 0
64.69803, 448, 413, 116, -85.81396, 0
64.71863, 498, 413, 116, -85.81396, 0
64.7388, 488, 413, 116, -85.81396, 0
64.76038, 486, 413, 116, -85.81396, 0
64.78008, 513, 414, 116, -85.81396, 0
64.80045, 513, 415, 116, -85.81396, 0
64.81681, 512, 416, 115, -86.51163, 0
64.83955, 500, 417, 115, -86.51163, 0
64.86284, 507, 418, 115, -86.51163, 0
64.88107, 547, 419, 115, -86.51163, 0
64.90082, 519, 421, 115, -86.51163, 0
64.92116, 509, 422, 115, -86.51163, 0
64.93842, 493, 424, 114, -87.2093, 0
64.95896, 493, 425, 114, -87.2093, 0
64.97952, 472, 426, 113, -87.90697, 0
64.99769, 458, 426, 112, -88.60465, 0
65.01813, 421, 426, 111, -89.30232, 0
65.0384, 401, 426, 111, -89.30232, 0
65.0549, 383, 426, 110, -90, 0
65.07986, 356, 426, 109, -90.69768, 0
65.09811, 338, 425, 109, -90.69768, 0
65.11788, 317, 425, 109, -90.69768, 0
65.13844, 299, 423, 110, -90, 0
65.16457, 280, 423, 111, -89.30232, 0
65.17762, 262, 422, 111, -89.30232, 0
65.19699, 241, 420, 112, -88.60465, 0
65.21636, 224, 419, 112, -88.60465, 0
65.23665, 211, 419, 112, -88.60465, 0
65.25778, 192, 418, 112, -88.60465, 0
65.28208, 175, 417, 112, -88.60465, 0
65.29732, 160, 416, 112, -88.60465, 0
65.31477, 149, 417, 112, -88.60465, 0
65.33496, 137, 417, 112, -88.60465, 180
65.3567, 122, 421, 91, -103.2558, 180
65.37536, 108, 434, 77, -113.0233, 180
65.39581, 103, 441, 80, -110.9302, 180
65.41519, 97, 449, 75, -114.4186, 180
65.43124, 94, 449, 93, -101.8605, 180
65.45177, 92, 450, 105, -93.48837, 180
65.47276, 95, 450, 112, -88.60465, 180
65.49501, 90, 449, 117, -85.11628, 180
65.51418, 92, 447, 122, -81.62791, 180
65.5343, 89, 446, 123, -80.93023, 180
65.55054, 84, 445, 123, -80.93023, 180
65.57112, 84, 444, 122, -81.62791, 180
65.5917, 86, 449, 122, -81.62791, 180
65.61262, 90, 445, 116, -85.81396, 180
65.63256, 96, 444, 122, -81.62791, 180
65.65325, 94, 445, 123, -80.93023, 180
65.66949, 100, 445, 126, -78.83721, 180
65.68983, 111, 444, 129, -76.74419, 180
65.71213, 111, 443, 127, -78.13953, 180
65.73087, 117, 443, 129, -76.74419, 180
65.75133, 114, 444, 135, -72.55814, 180
65.7718, 113, 443, 136, -71.86047, 180
65.78811, 110, 442, 138, -70.46512, 180
65.80881, 95, 443, 143, -66.97675, 180
65.83064, 85, 448, 145, -65.5814, 180
65.85075, 112, 444, 147, -64.18604, 180
65.87122, 156, 444, 149, -62.7907, 180
65.89352, 192, 445, 146, -64.88372, 180
65.91477, 227, 443, 156, -57.90698, 180
65.93053, 248, 443, 153, -60, 180
65.94916, 257, 443, 159, -55.81395, 180
65.96992, 254, 442, 161, -54.41861, 0
65.9902, 268, 433, 201, -26.51163, 0
66.01121, 248, 435, 170, -48.13953, 0
66.03103, 243, 432, 165, -51.62791, 0
66.04786, 240, 428, 164, -52.32558, 0
66.06771, 234, 422, 168, -49.53489, 0
66.08863, 225, 420, 176, -43.95349, 0
66.10977, 221, 416, 184, -38.37209, 0
66.13148, 212, 415, 184, -38.37209, 0
66.14981, 202, 415, 184, -38.37209, 0
66.16653, 187, 414, 184, -38.37209, 0
66.18751, 172, 413, 184, -38.37209, 0
66.20758, 161, 413, 184, -38.37209, 0
66.22852, 147, 412, 184, -38.37209, 0
66.24806, 130, 412, 184, -38.37209, 180
66.26857, 106, 413, 180, -41.16279, 180
66.28499, 85, 424, 149, -62.7907, 180
66.30569, 74, 436, 133, -73.95349, 180
66.32673, 72, 437, 138, -70.46512, 180
66.34959, 74, 441, 141, -68.37209, 180
66.3674, 72, 446, 154, -59.30233, 180
66.38853, 71, 439, 161, -54.41861, 180
66.40443, 68, 439, 158, -56.51163, 180
66.42278, 64, 446, 149, -62.7907, 180
66.44434, 56, 461, 153, -60, 180
66.46494, 54, 466, 157, -57.2093, 180
66.48598, 53, 469, 160, -55.11628, 180
66.50658, 49, 474, 168, -49.53489, 180
66.52516, 47, 477, 204, -24.4186, 180
66.54427, 46, 476, 207, -22.32558, 180
66.56255, 47, 447, 211, -19.53488, 180
66.58206, 55, 442, 217, -15.34884, 180
66.60426, 50, 440, 217, -15.34884, 180
66.62576, 53, 443, 210, -20.23256, 180
66.64673, 54, 442, 219, -13.95349, 180
66.66191, 52, 442, 220, -13.25581, 180
66.68256, 49, 443, 220, -13.25581, 180
66.70312, 47, 442, 220, -13.25581, 180
66.7243, 54, 444, 223, -11.16279, 180
66.74493, 64, 443, 226, -9.069767, 180
66.76645, 82, 443, 227, -8.372093, 180
66.78176, 89, 443, 230, -6.27907, 180
66.79942, 90, 443, 230, -6.27907, 180
66.81966, 89, 443, 232, -4.883721, 180
66.84017, 87, 443, 233, -4.186047, 180
66.84017: Grabbed object
66.86143, 82, 443, 234, -3.488372, 180
66.88108, 77, 443, 235, -2.790698, 180
66.89751, 71, 443, 238, -0.6976744, 180
66.91777, 66, 443, 239, 0, 180
66.93846, 59, 442, 240, 0.6976744, 180
66.95986, 54, 442, 241, 1.395349, 180
66.9805, 51, 442, 241, 1.395349, 180
67.00158, 46, 442, 241, 1.395349, 180
67.0218, 43, 442, 241, 1.395349, 180
67.03905, 39, 441, 241, 1.395349, 180
67.05928, 39, 441, 241, 1.395349, 180
67.08012, 38, 442, 241, 1.395349, 180
67.09854, 38, 442, 241, 1.395349, 180
67.11891, 39, 441, 241, 1.395349, 180
67.13916, 39, 442, 241, 1.395349, 180
67.15639, 41, 442, 241, 1.395349, 180
67.1772, 47, 442, 241, 1.395349, 180
67.19807, 79, 441, 241, 1.395349, 180
67.21724, 141, 442, 241, 1.395349, 180
67.23779, 214, 442, 241, 1.395349, 180
67.25834, 239, 442, 241, 1.395349, 180
67.27557, 220, 442, 240, 0.6976744, 180
67.29761, 254, 442, 240, 0.6976744, 180
67.31695, 319, 443, 240, 0.6976744, 0
67.33724, 430, 447, 217, -15.34884, 0
67.36002, 504, 451, 200, -27.2093, 0
67.37953, 544, 445, 188, -35.58139, 0
67.40105, 508, 442, 180, -41.16279, 0
67.41831, 479, 442, 179, -41.86047, 0
67.43825, 508, 437, 180, -41.16279, 0
67.45493, 523, 434, 181, -40.46511, 0
67.47612, 502, 437, 185, -37.67442, 0
67.49566, 435, 436, 189, -34.88372, 0
67.5158, 540, 428, 191, -33.48837, 0
67.53251, 469, 428, 190, -34.18605, 0
67.55251, 434, 430, 187, -36.27907, 0
67.57339, 397, 431, 184, -38.37209, 0
67.59469, 360, 432, 182, -39.76744, 0
67.61531, 356, 433, 175, -44.65116, 0
67.6347, 346, 433, 175, -44.65116, 0
67.651, 439, 434, 172, -46.74419, 0
67.67188, 398, 442, 169, -48.83721, 0
67.69296, 376, 436, 162, -53.72093, 0
67.71267, 397, 435, 161, -54.41861, 0
67.73305, 379, 436, 159, -55.81395, 0
67.75542, 403, 439, 153, -60, 0
67.77698, 413, 440, 147, -64.18604, 0
67.79456, 370, 441, 143, -66.97675, 0
67.81438, 413, 440, 140, -69.06977, 0
67.8353, 435, 441, 133, -73.95349, 0
67.85459, 415, 444, 130, -76.04651, 0
67.87502, 384, 442, 126, -78.83721, 0
67.89592, 379, 441, 124, -80.23256, 0
67.91189, 456, 439, 122, -81.62791, 0
67.93204, 459, 437, 124, -80.23256, 0
67.95253, 377, 438, 121, -82.32558, 0
67.97271, 368, 443, 121, -82.32558, 0
67.99352, 477, 437, 115, -86.51163, 0
67.99352: Released object
68.01601, 476, 437, 117, -85.11628, 0
68.03248, 454, 437, 112, -88.60465, 0
68.05076, 478, 443, 112, -88.60465, 0
68.07086, 570, 436, 109, -90.69768, 0
68.09182, 619, 437, 107, -92.09303, 0
68.11098, 690, 437, 104, -94.18604, 0
68.1303, 685, 438, 104, -94.18604, 0
68.14671, 691, 438, 100, -96.97675, 0
68.16702, 692, 440, 100, -96.97675, 0
68.18766, 694, 442, 100, -96.97675, 0
68.2088, 695, 443, 96, -99.76744, 0
68.22906, 687, 444, 96, -99.76744, 0
68.25009, 695, 443, 94, -101.1628, 0
68.27177, 698, 441, 94, -101.1628, 0
68.28576, 703, 439, 95, -100.4651, 0
68.30649, 708, 438, 97, -99.06977, 0
68.32761, 712, 437, 99, -97.67442, 0
68.3473, 720, 436, 102, -95.5814, 0
68.36787, 721, 436, 102, -95.5814, 0
68.38833, 721, 436, 102, -95.5814, 0
68.40609, 719, 435, 98, -98.37209, 0
68.42613, 655, 442, 104, -94.18604, 0
68.44582, 619, 434, 98, -98.37209, 0
68.46687, 560, 430, 97, -99.06977, 0
68.48662, 503, 431, 98, -98.37209, 0
68.50709, 424, 429, 99, -97.67442, 0
68.5243, 376, 428, 100, -96.97675, 0
68.54504, 384, 427, 102, -95.5814, 0
68.56447, 397, 428, 102, -95.5814, 0
68.58508, 373, 428, 102, -95.5814, 0
68.60532, 378, 429, 102, -95.5814, 0
68.62666, 394, 430, 101, -96.27907, 0
68.64672, 383, 429, 100, -96.97675, 0
68.66375, 355, 429, 99, -97.67442, 0
68.68346, 356, 428, 98, -98.37209, 0
68.70351, 334, 427, 99, -97.67442, 0
68.72446, 324, 426, 101, -96.27907, 0
68.74509, 293, 425, 101, -96.27907, 0
68.76534, 282, 425, 101, -96.27907, 0
68.78188, 260, 425, 101, -96.27907, 0
68.80183, 236, 426, 101, -96.27907, 0
68.82281, 237, 425, 101, -96.27907, 0
68.84431, 223, 426, 101, -96.27907, 0
68.86349, 215, 425, 101, -96.27907, 0
68.88475, 202, 425, 101, -96.27907, 0
68.90023, 210, 425, 101, -96.27907, 0
68.92073, 199, 425, 101, -96.27907, 0
68.94128, 206, 425, 101, -96.27907, 0
68.96503, 193, 425, 101, -96.27907, 0
68.9846, 191, 424, 101, -96.27907, 0
69.00595, 195, 424, 100, -96.97675, 0
69.0228, 202, 425, 101, -96.27907, 0
69.04205, 189, 425, 100, -96.97675, 0
69.06348, 194, 425, 100, -96.97675, 0
69.08158, 193, 424, 101, -96.27907, 0
69.10275, 164, 425, 101, -96.27907, 0
69.12196, 180, 424, 101, -96.27907, 0
69.1385, 174, 424, 101, -96.27907, 0
69.15925, 172, 424, 101, -96.27907, 0
69.17951, 162, 423, 101, -96.27907, 0
69.20004, 151, 424, 101, -96.27907, 0
69.22044, 144, 423, 101, -96.27907, 0
69.2365, 138, 422, 100, -96.97675, 180
69.25723, 124, 429, 82, -109.5349, 180
69.27852, 109, 438, 72, -116.5116, 180
69.29834, 95, 444, 71, -117.2093, 180
69.31969, 84, 449, 81, -110.2326, 180
69.33887, 74, 452, 91, -103.2558, 180
69.36015, 89, 452, 98, -98.37209, 180
69.37685, 128, 450, 105, -93.48837, 180
69.3978, 191, 446, 104, -94.18604, 180
69.41709, 268, 446, 108, -91.39535, 180
69.43681, 320, 446, 99, -97.67442, 0
69.45778, 369, 442, 109, -90.69768, 0
69.47819, 398, 439, 97, -99.06977, 0
69.49541, 429, 439, 95, -100.4651, 0
69.51524, 447, 426, 97, -99.06977, 0
69.53587, 462, 421, 105, -93.48837, 0
69.55534, 480, 417, 113, -87.90697, 0
69.57667, 485, 415, 114, -87.2093, 0
69.59695, 493, 414, 113, -87.90697, 0
69.6142, 491, 412, 114, -87.2093, 0
69.63351, 487, 411, 114, -87.2093, 0
69.65412, 494, 410, 114, -87.2093, 0
69.67459, 496, 410, 114, -87.2093, 0
69.69514, 499, 409, 114, -87.2093, 0
69.71544, 495, 410, 114, -87.2093, 0
69.73273, 489, 410, 114, -87.2093, 0
69.75233, 485, 409, 114, -87.2093, 0
69.77325, 479, 410, 114, -87.2093, 0
69.79415, 475, 410, 114, -87.2093, 0
69.81387, 471, 409, 114, -87.2093, 0
69.83413, 462, 410, 114, -87.2093, 0
69.8546, 452, 410, 114, -87.2093, 0
69.8708, 443, 410, 114, -87.2093, 0
69.89233, 438, 409, 114, -87.2093, 0
69.91207, 433, 409, 114, -87.2093, 0
69.93285, 434, 409, 114, -87.2093, 0
69.95698, 430, 408, 114, -87.2093, 0
69.97552, 427, 408, 114, -87.2093, 0
69.99428, 422, 408, 114, -87.2093, 0
70.01417, 416, 408, 114, -87.2093, 0
70.03386, 411, 409, 114, -87.2093, 0
70.05359, 406, 408, 114, -87.2093, 0
70.07456, 402, 408, 114, -87.2093, 0
70.0957, 398, 407, 114, -87.2093, 0
70.1115, 397, 407, 114, -87.2093, 0
70.13119, 397, 407, 114, -87.2093, 0
70.15181, 396, 407, 114, -87.2093, 0
70.17336, 392, 406, 114, -87.2093, 0
70.19122, 396, 405, 122, -81.62791, 0
70.21237, 391, 404, 122, -81.62791, 0
70.23188, 379, 405, 122, -81.62791, 0
70.24837, 369, 405, 122, -81.62791, 0
70.26859, 353, 404, 122, -81.62791, 0
70.28934, 333, 403, 122, -81.62791, 0
70.31047, 305, 403, 122, -81.62791, 0
70.33028, 280, 404, 122, -81.62791, 0
70.35059, 249, 404, 123, -80.93023, 0
70.3703, 209, 404, 123, -80.93023, 0
70.38979, 168, 404, 123, -80.93023, 0
70.40919, 133, 405, 122, -81.62791, 0
70.42873, 114, 404, 122, -81.62791, 180
70.44914, 101, 407, 111, -89.30232, 180
70.47079, 91, 423, 80, -110.9302, 180
70.48618, 92, 435, 70, -117.907, 180
70.50559, 105, 442, 75, -114.4186, 180
70.52734, 124, 447, 79, -111.6279, 180
70.54667, 144, 447, 96, -99.76744, 180
70.56715, 157, 455, 111, -89.30232, 180
70.58757, 165, 449, 117, -85.11628, 180
70.60528, 166, 447, 122, -81.62791, 180
70.62765, 159, 447, 125, -79.53488, 180
70.64815, 142, 446, 127, -78.13953, 180
70.66624, 124, 445, 128, -77.44186, 180
70.68679, 104, 443, 127, -78.13953, 180
70.7071, 87, 444, 130, -76.04651, 180
70.72427, 72, 444, 131, -75.34884, 180
70.74536, 58, 452, 132, -74.65116, 180
70.76497, 58, 444, 133, -73.95349, 180
70.78527, 54, 443, 132, -74.65116, 180
70.80724, 55, 448, 138, -70.46512, 180
70.82752, 58, 443, 140, -69.06977, 180
70.84653, 70, 443, 143, -66.97675, 180
70.86328, 76, 443, 145, -65.5814, 180
70.8835, 86, 443, 142, -67.67442, 180
70.90478, 99, 443, 145, -65.5814, 180
70.92436, 122, 443, 150, -62.09302, 180
70.94563, 145, 443, 153, -60, 180
70.96542, 171, 451, 156, -57.90698, 180
70.98203, 205, 443, 159, -55.81395, 180
71.00189, 240, 443, 160, -55.11628, 180
71.02288, 264, 442, 161, -54.41861, 180
71.04624, 273, 442, 163, -53.02325, 0
71.06393, 284, 435, 178, -42.55814, 0
71.08392, 276, 443, 166, -50.93023, 0
71.10032, 273, 430, 162, -53.72093, 0
71.12093, 269, 426, 164, -52.32558, 0
71.1414, 270, 422, 170, -48.13953, 0
71.16279, 261, 419, 177, -43.25581, 0
71.18256, 253, 417, 183, -39.06977, 0
71.20325, 243, 415, 183, -39.06977, 0
71.21906, 240, 415, 183, -39.06977, 0
71.23981, 244, 415, 183, -39.06977, 0
71.26205, 259, 414, 183, -39.06977, 0
71.28069, 270, 414, 183, -39.06977, 0
71.30103, 275, 414, 183, -39.06977, 0
71.32191, 274, 414, 183, -39.06977, 0
71.33781, 292, 413, 183, -39.06977, 0
71.35867, 285, 414, 183, -39.06977, 0
71.3791, 288, 414, 183, -39.06977, 0
71.39939, 304, 414, 183, -39.06977, 0
71.41979, 326, 415, 183, -39.06977, 0
71.44049, 334, 415, 183, -39.06977, 0
71.46396, 340, 414, 183, -39.06977, 0
71.47823, 352, 414, 183, -39.06977, 0
71.49696, 365, 414, 183, -39.06977, 0
71.51733, 375, 414, 183, -39.06977, 0
71.5377, 381, 414, 183, -39.06977, 0
71.55839, 384, 413, 183, -39.06977, 0
71.57873, 376, 413, 183, -39.06977, 0
71.59622, 355, 413, 183, -39.06977, 0
71.61643, 327, 413, 183, -39.06977, 0
71.63714, 278, 413, 183, -39.06977, 0
71.65733, 231, 413, 183, -39.06977, 0
71.67971, 189, 413, 183, -39.06977, 0
71.69833, 152, 413, 183, -39.06977, 0
71.71491, 123, 413, 183, -39.06977, 0
71.7351, 100, 413, 183, -39.06977, 180
71.75585, 80, 417, 165, -51.62791, 180
71.77683, 65, 428, 144, -66.27907, 180
71.798, 55, 438, 139, -69.76744, 180
71.81879, 49, 440, 143, -66.97675, 180
71.83614, 45, 443, 148, -63.48837, 180
71.85551, 39, 447, 156, -57.90698, 180
71.8764, 39, 443, 165, -51.62791, 180
71.89979, 38, 443, 171, -47.44186, 180
71.91722, 41, 444, 174, -45.34884, 180
71.93745, 46, 444, 184, -38.37209, 180
71.95772, 60, 443, 194, -31.39535, 180
71.97629, 74, 446, 190, -34.18605, 180
71.9956, 91, 444, 200, -27.2093, 180
72.01505, 111, 444, 204, -24.4186, 180
72.03548, 127, 444, 207, -22.32558, 180
72.05714, 143, 442, 213, -18.13953, 180
72.07556, 150, 443, 218, -14.65116, 180
72.07556: Grabbed object
72.09299, 160, 442, 220, -13.25581, 180
72.11388, 170, 442, 220, -13.25581, 180
72.13206, 172, 443, 221, -12.55814, 180
72.15297, 177, 442, 224, -10.46512, 180
72.17334, 179, 444, 223, -11.16279, 180
72.19482, 184, 442, 223, -11.16279, 180
72.21082, 189, 444, 225, -9.767442, 180
72.23071, 189, 444, 228, -7.674418, 180
72.25136, 193, 443, 229, -6.976744, 180
72.27147, 196, 443, 232, -4.883721, 180
72.29231, 199, 442, 232, -4.883721, 180
72.31252, 207, 442, 235, -2.790698, 180
72.33013, 224, 441, 235, -2.790698, 180
72.34962, 247, 440, 235, -2.790698, 180
72.36951, 274, 438, 236, -2.093023, 180
72.39021, 300, 432, 235, -2.790698, 0
72.41183, 348, 444, 238, -0.6976744, 0
72.43176, 507, 446, 208, -21.62791, 0
72.44875, 641, 446, 191, -33.48837, 0
72.46743, 662, 444, 182, -39.76744, 0
72.48804, 658, 443, 172, -46.74419, 0
72.50899, 668, 439, 180, -41.16279, 0
72.52908, 671, 439, 179, -41.86047, 0
72.5505, 675, 431, 184, -38.37209, 0
72.56634, 682, 429, 189, -34.88372, 0
72.58678, 580, 426, 192, -32.7907, 0
72.6067, 628, 427, 195, -30.69767, 0
72.62803, 587, 427, 192, -32.7907, 0
72.64783, 536, 432, 189, -34.88372, 0
72.67048, 592, 434, 182, -39.76744, 0
72.69064, 595, 440, 174, -45.34884, 0
72.70865, 559, 445, 162, -53.72093, 0
72.72855, 530, 446, 154, -59.30233, 0
72.74841, 521, 447, 147, -64.18604, 0
72.77035, 484, 448, 140, -69.06977, 0
72.78919, 451, 450, 131, -75.34884, 0
72.8101, 502, 446, 129, -76.74419, 0
72.82796, 510, 450, 128, -77.44186, 0
72.84753, 529, 444, 123, -80.93023, 0
72.86792, 472, 440, 127, -78.13953, 0
72.88733, 478, 440, 125, -79.53488, 0
72.90813, 540, 441, 128, -77.44186, 0
72.92951, 541, 438, 124, -80.23256, 0
72.95221, 528, 437, 121, -82.32558, 0
72.9671, 478, 435, 120, -83.02325, 0
72.98615, 426, 440, 122, -81.62791, 0
73.00686, 435, 434, 120, -83.02325, 0
73.02739, 431, 434, 118, -84.4186, 0
73.04765, 427, 434, 115, -86.51163, 0
73.04765: Released object
73.06854, 366, 433, 113, -87.90697, 0
73.08472, 444, 434, 112, -88.60465, 0
73.10462, 479, 433, 111, -89.30232, 0
73.12542, 570, 434, 110, -90, 0
73.14713, 474, 434, 108, -91.39535, 0
73.16591, 481, 436, 100, -96.97675, 0
73.18812, 398, 433, 105, -93.48837, 0
73.20439, 453, 434, 104, -94.18604, 0
73.22408, 521, 432, 102, -95.5814, 0
73.24506, 445, 441, 108, -91.39535, 0
73.26554, 388, 433, 106, -92.7907, 0
73.28591, 319, 432, 105, -93.48837, 0
73.30535, 300, 431, 103, -94.88372, 0
73.32332, 303, 431, 103, -94.88372, 0
73.34464, 311, 430, 101, -96.27907, 0
73.36414, 298, 430, 102, -95.5814, 0
73.38326, 272, 429, 104, -94.18604, 0
73.40504, 256, 427, 106, -92.7907, 0
73.425, 242, 427, 106, -92.7907, 0
73.44247, 202, 427, 106, -92.7907, 0
73.46793, 160, 426, 105, -93.48837, 0
73.48148, 141, 424, 103, -94.88372, 0
73.50015, 128, 424, 103, -94.88372, 180
73.52026, 118, 428, 94, -101.1628, 180
73.54317, 100, 438, 77, -113.0233, 180
73.5599, 112, 443, 79, -111.6279, 180
73.58035, 101, 450, 86, -106.7442, 180
73.59999, 96, 453, 96, -99.76744, 180
73.6222, 99, 452, 106, -92.7907, 180
73.64065, 102, 454, 107, -92.09303, 180
73.66209, 90, 447, 118, -84.4186, 180
73.68176, 86, 445, 119, -83.72093, 180
73.6981, 92, 444, 116, -85.81396, 180
73.71862, 119, 443, 110, -90, 180
73.73943, 147, 446, 110, -90, 180
73.75957, 164, 446, 109, -90.69768, 180
73.78113, 180, 447, 110, -90, 180
73.80062, 179, 447, 112, -88.60465, 180
73.81853, 183, 447, 114, -87.2093, 180
73.83747, 183, 447, 116, -85.81396, 180
73.85829, 174, 447, 119, -83.72093, 180
73.87892, 168, 447, 120, -83.02325, 180
73.89898, 161, 447, 123, -80.93023, 180
73.92003, 152, 445, 125, -79.53488, 180
73.93655, 144, 445, 126, -78.83721, 180
73.95641, 134, 444, 126, -78.83721, 180
73.97742, 123, 445, 125, -79.53488, 180
73.99766, 115, 445, 125, -79.53488, 180
74.0177, 108, 446, 125, -79.53488, 180
74.03948, 97, 446, 120, -83.02325, 180
74.05543, 90, 447, 127, -78.13953, 180
74.07724, 75, 447, 129, -76.74419, 180
74.09641, 64, 448, 132, -74.65116, 180
74.11597, 58, 447, 133, -73.95349, 180
74.13686, 55, 447, 135, -72.55814, 180
74.15701, 58, 447, 138, -70.46512, 180
74.17431, 60, 446, 139, -69.76744, 180
74.1944, 60, 445, 141, -68.37209, 180
74.2146, 59, 445, 142, -67.67442, 180
74.23461, 61, 444, 142, -67.67442, 180
74.25669, 67, 444, 141, -68.37209, 180
74.27628, 68, 445, 141, -68.37209, 180
74.29439, 72, 445, 141, -68.37209, 180
74.31436, 78, 444, 142, -67.67442, 180
74.33365, 80, 444, 141, -68.37209, 180
74.354, 83, 443, 140, -69.06977, 180
74.37495, 91, 448, 135, -72.55814, 180
74.39499, 101, 444, 140, -69.06977, 180
74.41486, 111, 446, 143, -66.97675, 180
74.4321, 120, 444, 146, -64.88372, 180
74.45071, 126, 443, 143, -66.97675, 180
74.47123, 133, 444, 150, -62.09302, 180
74.49112, 142, 442, 151, -61.39535, 180
74.51188, 150, 443, 150, -62.09302, 180
74.53189, 165, 443, 149, -62.7907, 180
74.54824, 173, 442, 149, -62.7907, 180
74.56859, 191, 443, 151, -61.39535, 180
74.58928, 203, 450, 153, -60, 180
74.6105, 188, 442, 155, -58.60465, 180
74.632, 168, 451, 158, -56.51163, 180
74.65288, 167, 443, 160, -55.11628, 180
74.6708, 176, 442, 161, -54.41861, 180
74.68911, 183, 444, 162, -53.72093, 180
74.71051, 198, 447, 165, -51.62791, 180
74.73072, 226, 443, 166, -50.93023, 180
74.75072, 256, 443, 170, -48.13953, 180
74.77139, 275, 442, 172, -46.74419, 0
74.78806, 288, 440, 174, -45.34884, 0
74.80824, 297, 437, 162, -53.72093, 0
74.83123, 322, 435, 157, -57.2093, 0
74.84961, 336, 430, 159, -55.81395, 0
74.87055, 340, 429, 155, -58.60465, 0
74.89426, 308, 421, 165, -51.62791, 0
74.9101, 265, 420, 173, -46.04651, 0
74.928, 224, 418, 180, -41.16279, 0
74.94823, 199, 418, 181, -40.46511, 0
74.96789, 190, 417, 182, -39.76744, 0
74.98824, 193, 416, 182, -39.76744, 0
75.00887, 213, 416, 182, -39.76744, 0
75.02635, 235, 415, 182, -39.76744, 0
75.04709, 264, 415, 182, -39.76744, 0
75.06636, 288, 414, 182, -39.76744, 0
75.08707, 311, 414, 182, -39.76744, 0
75.10891, 333, 413, 182, -39.76744, 0
75.12804, 351, 413, 182, -39.76744, 0
75.14482, 366, 413, 182, -39.76744, 0
75.16562, 380, 412, 182, -39.76744, 0
75.18471, 388, 413, 182, -39.76744, 0
75.20508, 395, 412, 182, -39.76744, 0
75.22604, 395, 413, 182, -39.76744, 0
75.24789, 399, 413, 182, -39.76744, 0
75.26709, 396, 413, 182, -39.76744, 0
75.28436, 394, 412, 182, -39.76744, 0
75.30423, 391, 412, 182, -39.76744, 0
75.32637, 387, 413, 182, -39.76744, 0
75.34515, 379, 413, 182, -39.76744, 0
75.36505, 374, 413, 182, -39.76744, 0
75.38631, 370, 413, 181, -40.46511, 0
75.40294, 364, 413, 182, -39.76744, 0
75.42319, 355, 412, 181, -40.46511, 0
75.4433, 345, 413, 182, -39.76744, 0
75.46592, 339, 413, 182, -39.76744, 0
75.48372, 333, 413, 182, -39.76744, 0
75.50285, 330, 412, 182, -39.76744, 0
75.51894, 328, 413, 182, -39.76744, 0
75.54027, 324, 412, 182, -39.76744, 0
75.56126, 318, 412, 182, -39.76744, 0
75.58041, 311, 412, 182, -39.76744, 0
75.6011, 309, 412, 182, -39.76744, 0
75.62139, 307, 413, 182, -39.76744, 0
75.64547, 294, 413, 182, -39.76744, 0
75.66139, 287, 413, 182, -39.76744, 0
75.682, 285, 413, 182, -39.76744, 0
75.702, 281, 413, 182, -39.76744, 0
75.72274, 278, 412, 182, -39.76744, 0
75.74673, 281, 412, 182, -39.76744, 0
75.76477, 284, 411, 182, -39.76744, 0
75.77995, 286, 411, 182, -39.76744, 0
75.79842, 285, 411, 182, -39.76744, 0
75.81992, 287, 411, 182, -39.76744, 0
75.83945, 294, 411, 182, -39.76744, 0
75.86067, 299, 410, 182, -39.76744, 0
75.8814, 307, 411, 182, -39.76744, 0
75.89663, 317, 411, 182, -39.76744, 0
75.91705, 322, 411, 182, -39.76744, 0
75.93763, 335, 411, 182, -39.76744, 0
75.96016, 344, 412, 182, -39.76744, 0
75.97967, 350, 411, 182, -39.76744, 0
75.99908, 354, 411, 182, -39.76744, 0
76.01952, 362, 410, 182, -39.76744, 0
76.03643, 360, 411, 182, -39.76744, 0
76.05631, 359, 411, 182, -39.76744, 0
76.07767, 363, 411, 182, -39.76744, 0
76.09735, 371, 410, 182, -39.76744, 0
76.1178, 380, 411, 182, -39.76744, 0
76.13815, 381, 410, 182, -39.76744, 0
76.15617, 382, 410, 182, -39.76744, 0
76.17581, 382, 410, 182, -39.76744, 0
76.19628, 372, 410, 182, -39.76744, 0
76.2161, 362, 410, 182, -39.76744, 0
76.23654, 354, 410, 182, -39.76744, 0
76.25699, 344, 410, 182, -39.76744, 0
76.27386, 333, 410, 182, -39.76744, 0
76.29555, 327, 410, 182, -39.76744, 0
76.31435, 317, 410, 181, -40.46511, 0
76.33497, 308, 410, 182, -39.76744, 0
76.35558, 299, 410, 182, -39.76744, 0
76.37814, 294, 409, 182, -39.76744, 0
76.39673, 290, 410, 182, -39.76744, 0
76.4147, 289, 410, 182, -39.76744, 0
76.43361, 290, 410, 182, -39.76744, 0
76.45471, 282, 409, 182, -39.76744, 0
76.47402, 261, 409, 182, -39.76744, 0
76.4959, 237, 409, 182, -39.76744, 0
76.51476, 211, 408, 182, -39.76744, 0
76.53061, 192, 408, 182, -39.76744, 0
76.55164, 182, 408, 182, -39.76744, 0
76.572, 182, 409, 182, -39.76744, 0
76.59428, 184, 408, 182, -39.76744, 0
76.61282, 191, 408, 182, -39.76744, 0
76.63585, 191, 409, 182, -39.76744, 0
76.65176, 197, 409, 182, -39.76744, 0
76.67204, 197, 409, 182, -39.76744, 0
76.69109, 196, 409, 182, -39.76744, 0
76.71227, 200, 409, 182, -39.76744, 0
76.7318, 204, 409, 182, -39.76744, 0
76.75238, 205, 409, 182, -39.76744, 0
76.76873, 203, 410, 182, -39.76744, 0
76.78928, 203, 409, 182, -39.76744, 0
76.81184, 198, 409, 182, -39.76744, 0
76.8345, 193, 409, 182, -39.76744, 0
76.85059, 198, 409, 182, -39.76744, 0
76.87116, 193, 410, 182, -39.76744, 0
76.8877, 188, 409, 182, -39.76744, 0
76.90797, 181, 409, 182, -39.76744, 0
76.92878, 175, 409, 182, -39.76744, 0
76.94879, 169, 409, 182, -39.76744, 0
76.96944, 165, 409, 182, -39.76744, 0
76.99196, 152, 409, 182, -39.76744, 0
77.01064, 133, 409, 182, -39.76744, 0
77.02917, 119, 408, 182, -39.76744, 180
77.04905, 102, 417, 154, -59.30233, 180
77.07014, 93, 435, 137, -71.16279, 180
77.09026, 94, 435, 136, -71.86047, 180
77.11216, 96, 439, 138, -70.46512, 180
77.12952, 106, 445, 148, -63.48837, 180
77.14885, 106, 441, 155, -58.60465, 180
77.16845, 108, 443, 159, -55.81395, 180
77.18903, 103, 443, 169, -48.83721, 180
77.20972, 91, 448, 181, -40.46511, 180
77.23197, 82, 444, 189, -34.88372, 180
77.24833, 73, 444, 194, -31.39535, 180
77.26656, 92, 444, 191, -33.48837, 180
77.28722, 156, 443, 202, -25.81395, 180
77.30818, 224, 444, 205, -23.72093, 180
77.32836, 296, 444, 210, -20.23256, 180
77.34898, 375, 443, 214, -17.44186, 0
77.36475, 479, 441, 216, -16.04651, 0
77.38356, 594, 441, 198, -28.60465, 0
77.40421, 672, 440, 185, -37.67442, 0
77.42638, 673, 437, 184, -38.37209, 0
77.44625, 679, 434, 186, -36.97675, 0
77.46529, 685, 431, 187, -36.27907, 0
77.48633, 691, 428, 190, -34.18605, 0
77.50397, 703, 426, 197, -29.30233, 0
77.52162, 712, 424, 203, -25.11628, 0
77.54267, 716, 424, 205, -23.72093, 0
77.56293, 719, 423, 207, -22.32558, 0
77.58347, 721, 423, 208, -21.62791, 0
77.60341, 721, 421, 206, -23.02326, 0
77.61985, 723, 422, 208, -21.62791, 0
77.64027, 725, 422, 210, -20.23256, 0
77.66239, 725, 422, 210, -20.23256, 0
77.68122, 727, 421, 211, -19.53488, 0
77.70203, 727, 422, 211, -19.53488, 0
77.72214, 727, 422, 211, -19.53488, 0
77.73837, 726, 422, 211, -19.53488, 0
77.75978, 741, 416, 218, -14.65116, 0
77.75978: Grabbed object
77.77975, 725, 422, 210, -20.23256, 0
77.80349, 726, 421, 210, -20.23256, 0
77.82232, 727, 421, 211, -19.53488, 0
77.84368, 727, 421, 211, -19.53488, 0
77.86547, 727, 421, 211, -19.53488, 0
77.88125, 726, 421, 210, -20.23256, 0
77.90103, 726, 421, 210, -20.23256, 0
77.92064, 726, 421, 210, -20.23256, 0
77.94157, 726, 421, 210, -20.23256, 0
77.96244, 725, 421, 211, -19.53488, 0
77.98089, 687, 421, 211, -19.53488, 0
77.99726, 652, 421, 210, -20.23256, 0
78.01792, 610, 421, 210, -20.23256, 0
78.03802, 571, 421, 210, -20.23256, 0
78.05857, 536, 421, 211, -19.53488, 0
78.08047, 503, 421, 210, -20.23256, 0
78.09977, 470, 421, 211, -19.53488, 0
78.1201, 434, 421, 211, -19.53488, 0
78.13623, 390, 421, 210, -20.23256, 0
78.15697, 346, 421, 210, -20.23256, 0
78.17827, 309, 421, 210, -20.23256, 0
78.19756, 276, 421, 211, -19.53488, 0
78.21856, 247, 421, 210, -20.23256, 0
78.23877, 223, 422, 210, -20.23256, 0
78.25595, 207, 422, 210, -20.23256, 0
78.276, 196, 421, 210, -20.23256, 0
78.2977, 182, 421, 210, -20.23256, 0
78.31693, 164, 422, 210, -20.23256, 0
78.33729, 138, 422, 211, -19.53488, 0
78.35784, 175, 422, 210, -20.23256, 180
78.37465, 210, 423, 207, -22.32558, 180
78.39558, 267, 431, 181, -40.46511, 180
78.41528, 492, 437, 162, -53.72093, 0
78.43574, 662, 419, 259, 13.95349, 0
78.45604, 492, 432, 217, -15.34884, 0
78.47755, 524, 435, 198, -28.60465, 0
78.49473, 459, 434, 192, -32.7907, 0
78.51323, 380, 432, 188, -35.58139, 0
78.53398, 334, 434, 190, -34.18605, 0
78.55366, 400, 429, 184, -38.37209, 0
78.57681, 365, 428, 188, -35.58139, 0
78.59761, 319, 431, 187, -36.27907, 0
78.61436, 261, 432, 183, -39.06977, 0
78.63438, 285, 434, 177, -43.25581, 0
78.65467, 258, 436, 170, -48.13953, 0
78.67606, 246, 439, 168, -49.53489, 0
78.69585, 224, 442, 157, -57.2093, 0
78.71764, 249, 441, 155, -58.60465, 0
78.73702, 345, 442, 151, -61.39535, 0
78.75364, 376, 443, 146, -64.88372, 0
78.77329, 453, 442, 142, -67.67442, 0
78.79181, 489, 441, 140, -69.06977, 0
78.8125, 529, 444, 140, -69.06977, 0
78.83225, 558, 437, 139, -69.76744, 0
78.85555, 600, 436, 136, -71.86047, 0
78.8715, 674, 436, 135, -72.55814, 0
78.89302, 674, 435, 135, -72.55814, 0
78.91383, 690, 434, 134, -73.25581, 0
78.93489, 692, 434, 132, -74.65116, 0
78.95413, 693, 434, 130, -76.04651, 0
78.97434, 690, 434, 127, -78.13953, 0
78.99197, 690, 434, 125, -79.53488, 0
79.01129, 692, 435, 123, -80.93023, 0
79.02937, 686, 435, 122, -81.62791, 0
79.05059, 692, 436, 114, -87.2093, 0
79.05059: Released object
79.07052, 693, 437, 117, -85.11628, 0
79.09077, 692, 436, 114, -87.2093, 0
79.10764, 685, 443, 112, -88.60465, 0
79.12955, 692, 434, 109, -90.69768, 0
79.14913, 694, 435, 109, -90.69768, 0
79.16872, 697, 434, 109, -90.69768, 0
79.18959, 700, 433, 109, -90.69768, 0
79.21026, 644, 430, 110, -90, 0
79.23009, 570, 431, 111, -89.30232, 0
79.2466, 559, 431, 110, -90, 0
79.26683, 538, 432, 110, -90, 0
79.28743, 471, 431, 108, -91.39535, 0
79.3083, 375, 430, 111, -89.30232, 0
79.32912, 316, 430, 111, -89.30232, 0
79.34892, 277, 434, 102, -95.5814, 0
79.36648, 241, 429, 109, -90.69768, 0
79.38567, 210, 428, 108, -91.39535, 0
79.40635, 204, 426, 107, -92.09303, 0
79.4273, 251, 425, 109, -90.69768, 0
79.44732, 276, 424, 111, -89.30232, 0
79.46796, 314, 424, 112, -88.60465, 0
79.48378, 353, 424, 114, -87.2093, 0
79.50417, 387, 424, 114, -87.2093, 0
79.5249, 413, 424, 114, -87.2093, 0
79.54525, 416, 424, 114, -87.2093, 0
79.56542, 433, 424, 114, -87.2093, 0
79.58689, 435, 423, 114, -87.2093, 0
79.60234, 438, 422, 114, -87.2093, 0
79.62319, 441, 423, 114, -87.2093, 0
79.64436, 437, 422, 114, -87.2093, 0
79.66367, 426, 423, 114, -87.2093, 0
79.68442, 411, 422, 114, -87.2093, 0
79.70472, 400, 422, 114, -87.2093, 0
79.72521, 392, 421, 114, -87.2093, 0
79.74279, 392, 421, 114, -87.2093, 0
79.76203, 367, 420, 114, -87.2093, 0
79.78342, 353, 419, 114, -87.2093, 0
79.80576, 338, 418, 114, -87.2093, 0
79.82579, 321, 417, 114, -87.2093, 0
79.84742, 308, 417, 114, -87.2093, 0
79.86296, 305, 416, 114, -87.2093, 0
79.8829, 288, 416, 114, -87.2093, 0
79.90417, 273, 416, 114, -87.2093, 0
79.92455, 260, 415, 114, -87.2093, 0
79.94543, 249, 414, 114, -87.2093, 0
79.96484, 240, 413, 114, -87.2093, 0
79.98128, 232, 413, 114, -87.2093, 0
80.00194, 234, 413, 114, -87.2093, 0
80.02435, 226, 412, 114, -87.2093, 0
80.04371, 221, 412, 114, -87.2093, 0
80.06248, 215, 411, 114, -87.2093, 0
80.08228, 203, 411, 114, -87.2093, 0
80.09859, 188, 411, 114, -87.2093, 0
80.11886, 172, 410, 114, -87.2093, 0
80.14066, 154, 410, 114, -87.2093, 0
80.16129, 138, 410, 114, -87.2093, 0
80.1804, 127, 409, 114, -87.2093, 180
80.20097, 111, 413, 105, -93.48837, 180
80.21729, 96, 426, 77, -113.0233, 180
80.23874, 86, 436, 76, -113.7209, 180
80.25871, 87, 443, 81, -110.2326, 180
80.27915, 78, 455, 90, -103.9535, 180
80.29967, 84, 449, 101, -96.27907, 180
80.31977, 87, 449, 108, -91.39535, 180
80.33588, 91, 449, 118, -84.4186, 180
80.35654, 90, 448, 123, -80.93023, 180
80.37788, 91, 447, 125, -79.53488, 180
80.39743, 94, 445, 127, -78.13953, 180
80.41808, 96, 445, 122, -81.62791, 180
80.43951, 100, 445, 128, -77.44186, 180
80.45758, 100, 453, 129, -76.74419, 180
80.47571, 105, 449, 132, -74.65116, 180
80.49568, 103, 444, 132, -74.65116, 180
80.51726, 106, 443, 134, -73.25581, 180
80.53619, 107, 447, 132, -74.65116, 180
80.55636, 104, 444, 136, -71.86047, 180
80.57792, 98, 444, 138, -70.46512, 180
80.59474, 93, 443, 142, -67.67442, 180
80.61405, 91, 443, 144, -66.27907, 180
80.63484, 81, 443, 145, -65.5814, 180
80.65596, 76, 444, 141, -68.37209, 180
80.67532, 77, 443, 148, -63.48837, 180
80.69569, 74, 444, 151, -61.39535, 180
80.7123, 66, 448, 155, -58.60465, 180
80.73389, 80, 443, 157, -57.2093, 180
80.75366, 85, 447, 159, -55.81395, 180
80.77338, 72, 442, 160, -55.11628, 180
80.79522, 59, 441, 156, -57.90698, 180
80.81454, 50, 441, 164, -52.32558, 180
80.83121, 47, 439, 166, -50.93023, 180
80.85146, 60, 444, 166, -50.93023, 180
80.87363, 88, 439, 166, -50.93023, 180
80.89344, 109, 445, 153, -60, 180
80.9132, 143, 437, 166, -50.93023, 180
80.93359, 177, 440, 171, -47.44186, 180
80.95399, 159, 440, 174, -45.34884, 180
80.97009, 140, 446, 179, -41.86047, 180
80.99068, 145, 442, 182, -39.76744, 180
81.01163, 145, 442, 187, -36.27907, 180
81.03167, 141, 448, 192, -32.7907, 180
81.05495, 138, 444, 200, -27.2093, 180
81.07735, 127, 444, 206, -23.02326, 180
81.09391, 112, 445, 210, -20.23256, 180
81.11077, 107, 446, 205, -23.72093, 180
81.13001, 116, 446, 217, -15.34884, 180
81.15068, 140, 445, 222, -11.86047, 180
81.17184, 166, 446, 227, -8.372093, 180
81.19234, 188, 446, 230, -6.27907, 180
81.20889, 201, 444, 237, -1.395349, 180
81.22854, 199, 444, 239, 0, 180
81.25132, 184, 444, 240, 0.6976744, 180
81.27241, 158, 443, 241, 1.395349, 180
81.2952, 131, 443, 242, 2.093023, 180
81.31425, 108, 443, 241, 1.395349, 180
81.32963, 93, 443, 241, 1.395349, 180
81.3494, 86, 443, 241, 1.395349, 180
81.37013, 82, 443, 241, 1.395349, 180
81.39109, 79, 443, 241, 1.395349, 180
81.41265, 76, 442, 241, 1.395349, 180
81.43212, 75, 443, 241, 1.395349, 180
81.4533, 75, 443, 241, 1.395349, 180
81.46794, 75, 443, 241, 1.395349, 180
81.48637, 76, 443, 241, 1.395349, 180
81.50818, 77, 442, 241, 1.395349, 180
81.5282, 76, 443, 241, 1.395349, 180
81.54768, 74, 443, 241, 1.395349, 180
81.56837, 71, 443, 241, 1.395349, 180
81.58474, 70, 443, 241, 1.395349, 180
81.6061, 70, 442, 240, 0.6976744, 180
81.62679, 72, 443, 241, 1.395349, 180
81.64668, 76, 443, 241, 1.395349, 180
81.66685, 77, 442, 241, 1.395349, 180
81.68699, 78, 442, 241, 1.395349, 180
81.70459, 80, 443, 241, 1.395349, 180
81.72415, 81, 442, 240, 0.6976744, 180
81.74609, 82, 443, 241, 1.395349, 180
81.76479, 94, 443, 241, 1.395349, 180
81.78532, 112, 442, 241, 1.395349, 180
81.80631, 122, 443, 241, 1.395349, 180
81.82748, 136, 442, 241, 1.395349, 180
81.8442, 151, 442, 240, 0.6976744, 180
81.86378, 166, 442, 240, 0.6976744, 180
81.88527, 183, 442, 241, 1.395349, 180
81.88527: Grabbed object
81.90452, 197, 442, 241, 1.395349, 180
81.92567, 213, 442, 241, 1.395349, 180
81.94519, 227, 443, 241, 1.395349, 180
81.96173, 243, 442, 240, 0.6976744, 180
81.98199, 261, 442, 241, 1.395349, 180
82.00233, 284, 442, 241, 1.395349, 0
82.02231, 298, 445, 225, -9.767442, 0
82.04536, 299, 445, 201, -26.51163, 0
82.06373, 302, 442, 193, -32.09302, 0
82.08033, 306, 446, 189, -34.88372, 0
82.10072, 318, 438, 185, -37.67442, 0
82.12119, 324, 439, 188, -35.58139, 0
82.14345, 334, 432, 190, -34.18605, 0
82.16227, 341, 429, 193, -32.09302, 0
82.18328, 353, 427, 196, -30, 0
82.19891, 374, 425, 197, -29.30233, 0
82.21944, 374, 424, 202, -25.81395, 0
82.23979, 366, 433, 210, -20.23256, 0
82.26143, 368, 425, 212, -18.83721, 0
82.28348, 356, 426, 211, -19.53488, 0
82.30464, 341, 424, 204, -24.4186, 0
82.32417, 325, 429, 203, -25.11628, 0
82.34348, 300, 428, 199, -27.90698, 0
82.36124, 274, 430, 195, -30.69767, 0
82.38167, 244, 430, 193, -32.09302, 0
82.40209, 207, 429, 191, -33.48837, 0
82.42242, 181, 430, 188, -35.58139, 0
82.4433, 177, 436, 188, -35.58139, 0
82.46003, 156, 430, 181, -40.46511, 0
82.48196, 132, 432, 182, -39.76744, 0
82.5004, 111, 433, 180, -41.16279, 180
82.51835, 129, 419, 220, -13.25581, 180
82.53968, 108, 439, 182, -39.76744, 180
82.56142, 97, 451, 175, -44.65116, 180
82.57659, 158, 449, 176, -43.95349, 180
82.59625, 172, 453, 182, -39.76744, 180
82.61717, 226, 458, 199, -27.90698, 180
82.63718, 215, 458, 201, -26.51163, 180
82.65775, 380, 461, 201, -26.51163, 180
82.67872, 438, 463, 200, -27.2093, 0
82.69574, 452, 461, 189, -34.88372, 0
82.71491, 415, 464, 148, -63.48837, 0
82.73545, 471, 469, 136, -71.86047, 0
82.75608, 569, 459, 128, -77.44186, 0
82.78064, 643, 454, 123, -80.93023, 0
82.799, 646, 447, 123, -80.93023, 0
82.8156, 664, 439, 130, -76.04651, 0
82.8362, 680, 435, 134, -73.25581, 0
82.8568, 693, 430, 144, -66.27907, 0
82.87717, 700, 428, 147, -64.18604, 0
82.89876, 709, 428, 151, -61.39535, 0
82.91798, 716, 428, 154, -59.30233, 0
82.93808, 713, 432, 153, -60, 0
82.95501, 709, 432, 148, -63.48837, 0
82.97588, 704, 434, 144, -66.27907, 0
83.00606, 702, 435, 141, -68.37209, 0
83.0197, 701, 435, 138, -70.46512, 0
83.03774, 694, 443, 137, -71.16279, 0
83.05569, 694, 443, 135, -72.55814, 0
83.07246, 697, 435, 125, -79.53488, 0
83.0929, 698, 437, 129, -76.74419, 0
83.11365, 706, 432, 132, -74.65116, 0
83.13421, 710, 432, 135, -72.55814, 0
83.15434, 708, 435, 127, -78.13953, 0
83.17442, 707, 435, 130, -76.04651, 0
83.19188, 703, 435, 124, -80.23256, 0
83.21367, 702, 436, 124, -80.23256, 0
83.23144, 697, 440, 117, -85.11628, 0
83.25234, 693, 442, 120, -83.02325, 0
83.27439, 701, 436, 119, -83.72093, 0
83.29424, 701, 435, 118, -84.4186, 0
83.31451, 703, 436, 117, -85.11628, 0
83.33141, 661, 436, 115, -86.51163, 0
83.33141: Released object
83.35037, 596, 437, 114, -87.2093, 0
83.37102, 613, 437, 114, -87.2093, 0
83.39154, 640, 436, 114, -87.2093, 0
83.41265, 699, 436, 114, -87.2093, 0
83.43386, 710, 436, 113, -87.90697, 0
83.45072, 712, 435, 114, -87.2093, 0
83.46938, 716, 433, 116, -85.81396, 0
83.48999, 715, 434, 117, -85.11628, 0
83.51112, 640, 433, 116, -85.81396, 0
83.53069, 545, 434, 117, -85.11628, 0
83.55059, 465, 434, 117, -85.11628, 0
83.56692, 391, 436, 115, -86.51163, 0
83.58776, 334, 435, 114, -87.2093, 0
83.60822, 330, 435, 112, -88.60465, 0
83.62871, 321, 433, 111, -89.30232, 0
83.65017, 297, 433, 113, -87.90697, 0
83.66949, 314, 432, 112, -88.60465, 0
83.68579, 326, 439, 112, -88.60465, 0
83.70618, 347, 429, 112, -88.60465, 0
83.72774, 358, 427, 113, -87.90697, 0
83.74715, 384, 427, 113, -87.90697, 0
83.76777, 452, 425, 113, -87.90697, 0
83.78827, 503, 426, 114, -87.2093, 0
83.80887, 542, 426, 115, -86.51163, 0
83.82551, 561, 426, 115, -86.51163, 0
83.84562, 576, 426, 115, -86.51163, 0
83.86718, 587, 425, 115, -86.51163, 0
83.88659, 596, 425, 115, -86.51163, 0
83.90676, 616, 424, 115, -86.51163, 0
83.9287, 612, 423, 115, -86.51163, 0
83.94492, 609, 423, 115, -86.51163, 0
83.96465, 606, 422, 115, -86.51163, 0
83.98489, 595, 422, 115, -86.51163, 0
84.00523, 581, 421, 115, -86.51163, 0
84.02655, 564, 421, 115, -86.51163, 0
84.04853, 525, 421, 115, -86.51163, 0
84.06624, 504, 421, 115, -86.51163, 0
84.08514, 470, 421, 115, -86.51163, 0
84.1055, 446, 421, 115, -86.51163, 0
84.12653, 429, 421, 115, -86.51163, 0
84.14751, 407, 420, 116, -85.81396, 0
84.16815, 383, 419, 115, -86.51163, 0
84.1873, 363, 419, 115, -86.51163, 0
84.20535, 344, 418, 116, -85.81396, 0
84.22464, 326, 417, 115, -86.51163, 0
84.24774, 316, 417, 116, -85.81396, 0
84.26526, 304, 416, 116, -85.81396, 0
84.2879, 298, 415, 116, -85.81396, 0
84.30623, 279, 414, 116, -85.81396, 0
84.32375, 261, 414, 116, -85.81396, 0
84.344, 248, 412, 116, -85.81396, 0
84.36544, 231, 412, 116, -85.81396, 0
84.38499, 223, 411, 116, -85.81396, 0
84.40432, 218, 411, 116, -85.81396, 0
84.42523, 202, 410, 116, -85.81396, 0
84.44382, 188, 410, 116, -85.81396, 0
84.46164, 176, 410, 116, -85.81396, 0
84.481, 166, 409, 116, -85.81396, 0
84.50282, 158, 408, 116, -85.81396, 0
84.52199, 156, 408, 116, -85.81396, 0
84.54234, 144, 408, 116, -85.81396, 0
84.55965, 138, 408, 116, -85.81396, 180
84.5792, 127, 408, 114, -87.2093, 180
84.59988, 112, 422, 81, -110.2326, 180
84.62013, 104, 434, 75, -114.4186, 180
84.64027, 103, 442, 79, -111.6279, 180
84.66195, 99, 454, 90, -103.9535, 180
84.67931, 97, 461, 98, -98.37209, 180
84.69883, 98, 448, 110, -90, 180
84.71945, 96, 449, 120, -83.02325, 180
84.739, 94, 449, 125, -79.53488, 180
84.75983, 84, 448, 130, -76.04651, 180
